Wavelength Intensity
700.006 5514.9
699.962 5645.74
699.918 5566.95
699.874 5396.34
699.83 5543.0
699.786 5489.29
699.742 5736.04
699.698 5568.28
699.654 5467.32
699.61 5502.64
699.566 5524.04
699.522 5534.32
699.478 5472.34
699.434 5543.75
699.389 5506.79
699.345 5658.74
699.301 5571.78
699.257 5570.93
699.213 5503.44
699.169 5549.8
699.125 5476.79
699.081 5537.01
699.037 5616.65
698.993 5499.26
698.949 5354.17
698.905 5417.15
698.861 5646.51
698.817 5601.29
698.773 5644.79
698.729 5533.05
698.685 5327.11
698.641 5428.83
698.597 5391.99
698.553 5499.21
698.509 5478.98
698.465 5411.68
698.421 5319.48
698.377 5426.65
698.333 5389.83
698.289 5366.87
698.245 5349.45
698.201 5356.94
698.157 5228.86
698.113 5286.15
698.068 5274.28
698.024 5256.89
697.98 5427.51
697.936 5313.34
697.892 5251.72
697.848 5311.72
697.804 5313.68
697.76 5357.07
697.716 5372.83
697.672 5294.68
697.628 5280.06
697.584 5455.97
697.54 5181.83
697.496 5371.5
697.452 5376.2
697.408 5378.14
697.364 5269.72
697.319 5437.19
697.275 5240.53
697.231 5220.43
697.187 5203.09
697.143 5268.46
697.099 5116.05
697.055 5145.59
697.011 5210.94
696.967 5166.06
696.923 5055.08
696.879 5203.05
696.835 5125.15
696.791 5121.61
696.746 5324.56
696.702 5216.4
696.658 5088.99
696.614 5096.47
696.57 5092.95
696.526 5133.43
696.482 5248.18
696.438 5030.11
696.394 5056.84
696.35 5133.05
696.306 5085.54
696.261 5079.27
696.217 5188.41
696.173 5127.17
696.129 5101.67
696.085 5051.44
696.041 4902.37
695.997 5096.59
695.953 5049.13
695.909 5059.34
695.864 5154.64
695.82 5079.75
695.776 5161.3
695.732 5176.97
695.688 5170.69
695.644 5216.53
695.6 5207.51
695.556 5042.2
695.512 5236.07
695.467 5111.93
695.423 5198.84
695.379 5239.15
695.335 5202.74
695.291 5130.72
695.247 5258.66
695.203 5211.31
695.159 5199.56
695.114 5267.21
695.07 5244.5
695.026 5287.49
694.982 5322.26
694.938 5340.6
694.894 5181.12
694.85 5281.53
694.806 5034.6
694.761 5159.6
694.717 5035.79
694.673 4961.22
694.629 5118.98
694.585 4864.06
694.541 4825.07
694.497 4960.92
694.452 5066.68
694.408 4907.51
694.364 5046.02
694.32 4911.47
694.276 4902.53
694.232 4980.93
694.188 4734.57
694.143 4873.0
694.099 4937.73
694.055 4950.61
694.011 4941.67
693.967 4842.75
693.923 4782.03
693.878 4781.3
693.834 4865.06
693.79 4959.7
693.746 4841.78
693.702 4941.83
693.658 5036.41
693.613 4945.77
693.569 5010.37
693.525 5009.6
693.481 4840.06
693.437 4885.59
693.393 4882.12
693.348 4788.86
693.304 4736.44
693.26 4806.43
693.216 4699.63
693.172 4707.07
693.128 4630.22
693.083 4735.53
693.039 4631.52
692.995 4595.49
692.951 4559.46
692.907 4632.11
692.862 4707.46
692.818 4679.58
692.774 4776.62
692.73 4612.98
692.686 4650.28
692.642 4568.14
692.597 4673.28
692.553 4626.44
692.509 4612.17
692.465 4625.02
692.421 4523.96
692.376 4572.08
692.332 4536.13
692.288 4573.39
692.244 4480.53
692.2 4471.72
692.155 4679.68
692.111 4554.33
692.067 4518.42
692.023 4468.98
691.979 4468.29
691.934 4505.51
691.89 4499.41
691.846 4422.93
691.802 4503.44
691.758 4610.99
691.713 4396.54
691.669 4566.29
691.625 4535.84
691.581 4445.9
691.536 4629.09
691.492 4528.35
691.448 4473.59
691.404 4359.4
691.36 4558.69
691.315 4528.27
691.271 4514.07
691.227 4351.32
691.183 4320.95
691.138 4498.49
691.094 4473.51
691.05 4432.33
691.006 4374.97
690.961 4509.23
690.917 4360.14
690.873 4432.31
690.829 4445.12
690.785 4339.26
690.74 4392.52
690.696 4416.11
690.652 4404.65
690.608 4363.54
690.563 4228.13
690.519 4292.15
690.475 4358.84
690.431 4387.8
690.386 4311.72
690.342 4286.82
690.298 4342.7
690.254 4385.11
690.209 4244.48
690.165 4230.37
690.121 4315.82
690.077 4385.1
690.032 4284.91
689.988 4222.39
689.944 4377.71
689.9 4213.03
689.855 4244.64
689.811 4268.18
689.767 4321.27
689.722 4240.0
689.678 4161.44
689.634 4238.7
689.59 4025.87
689.545 4119.24
689.501 4260.91
689.457 4126.03
689.413 4133.45
689.368 4202.59
689.324 4175.11
689.28 4212.02
689.236 4179.19
689.191 4186.59
689.147 4226.17
689.103 4064.65
689.058 4203.43
689.014 4301.95
688.97 4113.7
688.926 4118.42
688.881 4216.92
688.837 4127.87
688.793 4178.12
688.748 4166.77
688.704 3989.42
688.66 4119.98
688.616 4052.43
688.571 4121.39
688.527 4211.73
688.483 4160.25
688.438 4025.86
688.394 4089.43
688.35 4091.48
688.305 4197.8
688.261 4052.79
688.217 4028.11
688.173 4153.1
688.128 3976.1
688.084 3975.49
688.04 3980.22
687.995 4155.89
687.951 4043.09
687.907 4050.47
687.862 4143.29
687.818 3918.43
687.774 3995.23
687.729 3981.27
687.685 4028.68
687.641 4030.73
687.596 4120.79
687.552 4056.15
687.508 4111.52
687.464 3934.94
687.419 3998.3
687.375 3880.42
687.331 4082.34
687.286 3996.46
687.242 3844.0
687.198 3963.26
687.153 4071.84
687.109 3940.74
687.065 3934.81
687.02 4091.25
686.976 3992.15
686.932 3882.43
686.887 3964.31
686.843 3987.64
686.799 3957.77
686.754 3877.38
686.71 4009.73
686.666 3892.14
686.621 4027.1
686.577 3957.38
686.532 3962.08
686.488 3966.79
686.444 3995.4
686.399 3949.63
686.355 4057.9
686.311 3921.86
686.266 4019.48
686.222 3878.18
686.178 3885.54
686.133 3906.17
686.089 3934.75
686.045 3838.6549999999997
686.0 3742.56
685.956 3964.76
685.912 3905.81
685.867 3913.16
685.823 3856.89
685.778 3824.49
685.734 3784.15
685.69 3863.05
685.645 3894.25
685.601 3835.37
685.557 3906.29
685.512 4006.31
685.468 3995.1
685.424 3864.77
685.379 3882.7
685.335 3868.87
685.29 3870.92
685.246 3865.03
685.202 3830.05
685.157 3858.55
685.113 3897.62
685.068 3838.85
685.024 3819.75
684.98 3774.23
684.935 3845.0
684.891 3891.97
684.847 3838.53
684.802 3806.24
684.758 3832.06
684.713 3847.31
684.669 3844.08
684.625 3669.26
684.58 3824.41
684.536 3807.99
684.491 3854.9
684.447 3928.17
684.403 3824.69
684.358 3813.55
684.314 3844.6
684.269 3830.83
684.225 3701.07
684.181 3832.28
684.136 3726.27
684.092 3889.06
684.047 3854.21
684.003 3727.18
683.959 3887.26
683.914 3849.79
683.87 3833.4
683.825 3756.46
683.781 3716.4
683.737 3797.41
683.692 3715.25
683.648 3827.8
683.603 3885.08
683.559 3821.36
683.514 3844.43
683.47 3728.16
683.426 3811.7
683.381 3771.69
683.337 3884.1
683.292 3891.39
683.248 3811.97
683.203 3819.26
683.159 3902.71
683.115 3836.46
683.07 3867.37
683.026 3853.65
682.981 3926.54
682.937 3912.81
682.892 3867.6
682.848 3927.34
682.804 3908.37
682.759 3794.99
682.715 3886.18
682.67 3877.72
682.626 3864.01
682.581 3913.21
682.537 3771.09
682.492 3932.96
682.448 3874.72
682.404 3842.68
682.359 4164.23
682.315 4160.96
682.27 3856.61
682.226 3874.33
682.181 3923.46
682.137 3951.64
682.092 3961.5
682.048 3921.64
682.004 3868.72
681.959 3807.96
681.915 3974.73
681.87 3895.68
681.826 4017.94
681.781 3933.68
681.737 3948.75
681.692 4023.91
681.648 3965.81
681.603 3876.39
681.559 4121.29
681.514 3995.3
681.47 4070.4
681.425 3983.62
681.381 4090.02
681.337 3966.73
681.292 3986.99
681.248 3955.06
681.203 4048.36
681.159 4024.25
681.114 4002.77
681.07 4004.76
681.025 4129.26
680.981 4024.37
680.936 3969.01
680.892 4028.33
680.847 4131.91
680.803 4053.13
680.758 4010.83
680.714 4038.85
680.669 3993.96
680.625 4074.04
680.58 4172.31
680.536 4038.94
680.491 4090.36
680.447 4003.87
680.402 4065.68
680.358 4104.06
680.313 4074.82
680.269 4113.18
680.224 4154.14
680.18 4135.3
680.135 4158.05
680.091 4139.21
680.046 4125.58
680.002 4114.55
679.957 4059.37
679.913 4089.9
679.868 4019.16
679.824 4109.4
679.779 4108.76
679.735 4040.65
679.69 4154.19
679.646 4109.44
679.601 4033.58
679.557 4108.16
679.512 4133.45
679.468 4171.7
679.423 4111.43
679.379 4103.02
679.334 4177.53
679.29 4143.2
679.245 4093.33
679.201 4152.27
679.156 4084.29
679.111 4135.44
679.067 4057.13
679.022 4079.8
678.978 4079.16
678.933 4109.58
678.889 4158.11
678.844 4116.07
678.8 3993.85
678.755 4117.37
678.711 4033.98
678.666 4069.55
678.622 4045.65
678.577 4024.35
678.532 3961.7
678.488 4033.43
678.443 3999.22
678.399 4029.59
678.354 4013.47
678.31 3961.2
678.265 3955.42
678.221 3921.24
678.176 3954.19
678.132 3945.83
678.087 4022.62
678.042 3936.86
677.998 3954.31
677.953 3878.9
677.909 3942.76
677.864 3898.32
677.82 3781.71
677.775 3840.4
677.731 3806.3
677.686 3916.5
677.641 3825.72
677.597 3783.91
677.552 3868.32
677.508 3648.83
677.463 3748.68
677.419 3737.8
677.374 3708.9
677.329 3770.09
677.285 3766.93
677.24 3750.9
677.196 3740.03
677.151 3688.01
677.107 3687.44
677.062 3620.01
677.017 3750.55
676.973 3711.41
676.928 3672.29
676.884 3612.62
676.839 3627.47
676.795 3675.71
676.75 3574.98
676.705 3611.65
676.661 3648.32
676.616 3563.04
676.572 3624.08
676.527 3523.43
676.482 3646.04
676.438 3617.25
676.393 3691.08
676.349 3493.02
676.304 3623.25
676.259 3522.7
676.215 3517.02
676.17 3526.73
676.126 3656.87
676.081 3628.12
676.036 3509.71
675.992 3480.99
675.947 3452.27
675.903 3505.5
675.858 3530.56
675.813 3542.81
675.769 3478.27
675.724 3521.23
675.68 3546.27
675.635 3520.13
675.59 3517.02
675.546 3536.93
675.501 3434.1
675.456 3492.37
675.412 3379.35
675.367 3368.6
675.323 3370.62
675.278 3441.64
675.233 3438.55
675.189 3381.82
675.144 3432.37
675.1 3347.57
675.055 3421.08
675.01 3410.34
674.966 3302.61
674.921 3289.33
674.876 3270.96
674.832 3469.43
674.787 3241.88
674.742 3322.98
674.698 3404.06
674.653 3324.49
674.609 3431.04
674.564 3234.25
674.519 3243.94
674.475 3230.69
674.43 3288.78
674.385 3270.44
674.341 3282.66
674.296 3170.11
674.251 3235.81
674.207 3166.57
674.162 3216.98
674.117 3249.56
674.073 3104.03
674.028 3207.84
673.984 3138.66
673.939 3153.43
673.894 3180.91
673.85 3038.04
673.805 3121.45
673.76 3026.93
673.716 3158.59
673.671 3145.39
673.626 3063.61
673.582 3101.23
673.537 3100.74
673.492 3020.285
673.448 2939.83
673.403 3104.37
673.358 3022.67
673.314 3166.83
673.269 3014.11
673.224 3008.56
673.18 3003.02
673.135 3048.2
673.09 3095.9
673.046 2895.13
673.001 3034.09
672.956 2988.0
672.912 2954.59
672.867 3025.07
672.822 2915.67
672.778 3029.18
672.733 3013.52
672.688 2932.02
672.643 2964.47
672.599 2931.1
672.554 2907.87
672.509 2889.7
672.465 2914.55
672.42 2924.21
672.375 2916.16
672.331 2908.12
672.286 2895.02
672.241 2942.6
672.197 2886.53
672.152 2954.31
672.107 2885.63
672.063 2864.96
672.018 2902.4
671.973 2874.17
671.928 2934.32
671.884 2747.02
671.839 2948.55
671.794 2915.27
671.75 2889.58
671.705 2851.28
671.66 2873.54
671.615 2807.5
671.571 2885.25
671.526 2932.71
671.481 2884.34
671.437 2838.51
671.392 2835.55
671.347 2888.02
671.302 2890.09
671.258 2904.75
671.213 2864.0
671.168 2863.55
671.124 2785.04
671.079 2761.94
671.034 2849.61
670.989 2801.34
670.945 2841.17
670.9 2787.88
670.855 2820.15
670.811 2842.35
670.766 2907.29
670.721 2854.03
670.676 2926.49
670.632 2860.67
670.587 2857.71
670.542 2874.85
670.497 2736.21
670.453 2808.63
670.408 2913.69
670.363 2863.0
670.318 2895.19
670.274 2759.17
670.229 2801.41
670.184 2783.4
670.14 2762.89
670.095 2790.05
670.05 2777.07
670.005 2819.27
669.961 2773.69
669.916 2670.45
669.871 2745.24
669.826 2764.86
669.782 2754.4
669.737 2806.59
669.692 2756.04
669.647 2735.57
669.603 2680.04
669.558 2812.34
669.513 2766.83
669.468 2738.86
669.423 2650.82
669.379 2808.07
669.334 2720.05
669.289 2694.6
669.244 2709.19
669.2 2701.26
669.155 2710.84
669.11 2732.91
669.065 2754.98
669.021 2712.06
668.976 2754.12
668.931 2721.2
668.886 2795.72
668.842 2705.35
668.797 2699.93
668.752 2861.83
668.707 2856.38
668.662 2890.89
668.618 2753.15
668.573 2802.63
668.528 2752.28
668.483 2726.9
668.439 2699.03
668.394 2745.99
668.349 2623.37
668.304 2690.28
668.259 2632.52
668.215 2761.71
668.17 2786.2
668.125 2676.12
668.08 2703.11
668.035 2737.56
667.991 2714.71
667.946 2661.99
667.901 2763.65
667.856 2713.43
667.811 2700.55
667.767 2729.99
667.722 2582.76
667.677 2686.84
667.632 2664.03
667.587 2683.51
667.543 2658.22
667.498 2712.5
667.453 2652.41
667.408 2721.58
667.363 2698.79
667.319 2611.415
667.274 2524.04
667.229 2642.87
667.184 2699.57
667.139 2731.43
667.095 2621.76
667.05 2641.2
667.005 2668.09
666.96 2724.74
666.915 2637.47
666.87 2704.04
666.826 2636.64
666.781 2670.94
666.736 2759.79
666.691 2630.43
666.646 2677.12
666.602 2639.52
666.557 2676.27
666.512 2616.39
666.467 2635.79
666.422 2551.16
666.377 2637.44
666.333 2649.4
666.288 2750.48
666.243 2549.55
666.198 2667.95
666.153 2588.34
666.108 2538.45
666.064 2637.0
666.019 2690.99
665.974 2688.1
665.929 2598.66
665.884 2674.89
665.839 2721.43
665.794 2594.96
665.75 2624.2
665.705 2685.55
665.66 2628.31
665.615 2600.73
665.57 2642.3
665.525 2570.28
665.481 2643.93
665.436 2539.85
665.391 2613.48
665.346 2659.95
665.301 2607.72
665.256 2659.11
665.211 2683.36
665.167 2562.1
665.122 2571.56
665.077 2546.5
665.032 2600.32
664.987 2553.09
664.942 2574.86
664.897 2544.89
664.853 2620.85
664.808 2664.77
664.763 2563.38
664.718 2602.37
664.673 2530.57
664.628 2601.55
664.583 2522.39
664.538 2605.65
664.494 2570.79
664.449 2622.04
664.404 2643.76
664.359 2621.21
664.314 2547.04
664.269 2642.51
664.224 2615.05
664.179 2553.21
664.135 2557.72
664.09 2559.77
664.045 2561.82
664.0 2703.85
663.955 2526.63
663.91 2592.52
663.865 2570.02
663.82 2537.7
663.775 2581.47
663.731 2527.09
663.686 2511.97
663.641 2548.36
663.596 2587.2
663.551 2518.13
663.506 2620.7
663.461 2627.64
663.416 2551.25
663.371 2590.05
663.326 2530.84
663.282 2493.69
663.237 2468.81
663.192 2448.83
663.147 2458.23
663.102 2452.95
663.057 2540.67
663.012 2625.93
662.967 2652.42
662.922 2512.55
662.877 2578.2
662.832 2462.84
662.788 2557.82
662.743 2542.75
662.698 2456.78
662.653 2497.95
662.608 2605.08
662.563 2475.16
662.518 2491.87
662.473 2479.26
662.428 2500.85
662.383 2529.76
662.338 2556.21
662.293 2467.93
662.248 2509.03
662.204 2520.83
662.159 2515.55
662.114 2441.97
662.069 2451.34
662.024 2531.43
661.979 2460.31
661.934 2542.81
661.889 2566.79
661.844 2515.2
661.799 2483.12
661.754 2485.16
661.709 2570.03
661.664 2603.72
661.619 2469.37
661.574 2386.19
661.53 2449.11
661.485 2497.4
661.44 2543.25
661.395 2494.18
661.35 2491.35
661.305 2471.49
661.26 2466.24
661.215 2473.14
661.17 2518.94
661.125 2506.39
661.08 2474.39
661.035 2415.67
660.99 2366.69
660.945 2444.06
660.9 2421.81
660.855 2433.57
660.81 2493.89
660.765 2420.66
660.72 2519.8
660.675 2453.87
660.63 2480.17
660.586 2387.58
660.541 2426.01
660.496 2481.42
660.451 2447.07
660.406 2386.06
660.361 2487.51
660.316 2382.88
660.271 2479.45
660.226 2474.2
660.181 2427.78
660.136 2437.08
660.091 2397.94
660.046 2329.75
660.001 2375.38
659.956 2445.21
659.911 2461.77
659.866 2461.38
659.821 2417.43
659.776 2388.01
659.731 2484.4
659.686 2454.98
659.641 2447.33
659.596 2347.81
659.551 2335.35
659.506 2436.49
659.461 2399.86
659.416 2397.06
659.371 2355.6
659.326 2461.52
659.281 2446.63
659.236 2359.31
659.191 2375.84
659.146 2365.8
659.101 2476.45
659.056 2480.89
659.011 2321.24
658.966 2424.61
658.921 2392.86
658.876 2351.48
658.831 2396.93
658.786 2466.46
658.741 2495.0
658.696 2333.11
658.651 2458.06
658.606 2452.85
658.561 2445.23
658.516 2358.1400000000003
658.471 2271.05
658.426 2403.12
658.381 2422.0
658.336 2395.14
658.291 2421.23
658.246 2351.06
658.201 2384.37
658.156 2335.88
658.111 2323.48
658.066 2344.75
658.021 2399.68
657.976 2425.74
657.931 2374.88
657.886 2362.48
657.841 2402.96
657.796 2340.11
657.751 2428.62
657.706 2394.6
657.661 2387.02
657.616 2425.05
657.571 2369.45
657.526 2412.28
657.481 2383.09
657.435 2327.53
657.39 2384.73
657.345 2295.6
657.3 2314.42
657.255 2376.4
657.21 2462.33
657.165 2315.71
657.12 2291.37
657.075 2391.66
657.03 2302.62
656.985 2340.59
656.94 2289.91
656.895 2397.32
656.85 2365.81
656.805 2336.7
656.76 2410.53
656.715 2374.25
656.67 2402.58
656.625 2397.41
656.58 2370.72
656.535 2298.58
656.49 2293.43
656.444 2362.41
656.399 2381.16
656.354 2239.75
656.309 2327.82
656.264 2262.93
656.219 2327.07
656.174 2343.42
656.129 2419.48
656.084 2321.18
656.039 2382.89
655.994 2365.8
655.949 2222.21
655.904 2257.65
655.859 2336.03
655.814 2309.42
655.768 2411.62
655.723 2301.52
655.678 2320.23
655.633 2358.01
655.588 2374.32
655.543 2319.12
655.498 2273.47
655.453 2373.18
655.408 2315.63
655.363 2389.5280000000002
655.318 2463.426
655.273 2537.324
655.228 2611.2219999999998
655.182 2685.12
655.137 2365.77
655.092 2324.93
655.047 2324.56
655.002 2359.87
654.957 2330.95
654.912 2349.61
654.867 2296.92
654.822 2303.68
654.777 2284.3
654.732 2224.52
654.686 2326.34
654.641 2549.3
654.596 2326.34
654.551 2326.34
654.506 2326.34
654.461 2191.52
654.416 2210.16
654.371 2356.97
654.326 2318.62
654.281 2346.72
654.235 2313.13
654.19 2255.83
654.145 2198.55
654.1 2304.91
654.055 2325.87
654.01 2292.31
653.965 2249.28
653.92 2329.5
653.875 2243.83
653.829 2297.95
653.784 2226.53
653.739 2256.96
653.694 2275.54
653.649 2289.38
653.604 2208.53
653.559 2250.78
653.514 2274.08
653.468 2242.96
653.423 2358.51
653.378 2223.32
653.333 2263.16
653.288 2234.43
653.243 2347.55
653.198 2195.89
653.153 2169.54
653.107 2237.72
653.062 2310.6
653.017 2227.55
652.972 2269.71
652.927 2307.13
652.882 2202.87
652.837 2268.62
652.791 2270.61
652.746 2164.05
652.701 2236.85
652.656 2238.85
652.611 2295.1
652.566 2235.78
652.521 2263.71
652.475 2268.07
652.43 2218.2
652.385 2144.78
652.34 2205.7
652.295 2309.02
652.25 2205.0
652.205 2270.59
652.159 2237.26
652.114 2189.81
652.069 2201.23
652.024 2163.21
651.979 2221.7
651.934 2120.16
651.888 2202.17
651.843 2166.53
651.798 2312.0
651.753 2219.92
651.708 2278.34
651.663 2280.33
651.617 2185.94
651.572 2223.19
651.527 2305.08
651.482 2180.19
651.437 2269.1
651.392 2247.6
651.346 2244.89
651.301 2251.57
651.256 2293.47
651.211 2302.49
651.166 2262.22
651.121 2200.85
651.075 2158.27
651.03 2286.93
650.985 2155.23
650.94 2290.89
650.895 2180.33
650.85 2161.23
650.804 2210.1
650.759 2275.35
650.714 2249.22
650.669 2171.55
650.624 2232.1
650.578 2201.29
650.533 2236.06
650.488 2181.86
650.443 2223.64
650.398 2157.75
650.352 2159.75
650.307 2203.85
650.262 2280.69
650.217 2235.88
650.172 2247.22
650.126 2267.9
650.081 2169.35
650.036 2154.98
649.991 2084.52
649.946 2182.32
649.9 2200.66
649.855 2181.62
649.81 2302.71
649.765 2218.28
649.72 2192.24
649.674 2201.22
649.629 2296.56
649.584 2223.85
649.539 2162.83
649.494 2120.49
649.448 2190.12
649.403 2234.08
649.358 2166.1
649.313 2184.4
649.268 2263.3
649.222 2183.7
649.177 2215.97
649.132 2178.34
649.087 2133.73
649.041 2198.59
648.996 2154.0
648.951 2179.26
648.906 2239.43
648.861 2199.51
648.815 2171.23
648.77 2249.99
648.725 2251.95
648.68 2219.02
648.634 2193.08
648.589 2143.9
648.544 2227.25
648.499 2085.09
648.453 2156.81
648.408 2191.31
648.363 2258.34
648.318 2158.67
648.273 2158.67
648.227 2158.67
648.182 2158.67
648.137 2158.67
648.092 2158.67
648.046 2216.34
648.001 2199.74
647.956 2243.46
647.911 2161.91
647.865 2140.69
647.82 2235.42
647.775 2197.96
647.73 2165.15
647.684 2206.52
647.639 2169.09
647.594 2115.45
647.549 2124.37
647.503 2239.84
647.458 2091.27
647.413 2081.67
647.368 2173.94
647.322 2245.34
647.277 2133.89
647.232 2179.82
647.187 2140.14
647.141 2246.21
647.096 2222.71
647.051 2183.04
647.005 2080.95
646.96 2203.14
646.915 2177.36
646.87 2209.36
646.824 2153.55
646.779 2139.34
646.734 2217.53
646.689 2201.01
646.643 2175.25
646.598 2094.09
646.553 2119.15
646.508 2153.42
646.462 2192.31
646.417 2168.88
646.372 2092.4
646.326 2172.79
646.281 2179.36
646.236 2204.37
646.191 2208.62
646.145 2265.89
646.1 2201.0
646.055 2219.07
646.009 2098.91
645.964 2183.8
645.919 2174.24
645.874 2160.07
645.828 2148.21
645.783 2140.95
645.738 2294.82
645.692 2181.68
645.647 2093.89
645.602 2118.86
645.556 2162.22
645.511 2138.87
645.466 2159.22
645.421 2158.87
645.375 2158.52
645.33 2105.31
645.285 2201.49
645.239 2249.38
645.194 2111.18
645.149 2188.93
645.103 2151.84
645.058 2169.86
645.013 2183.28
644.968 2150.79
644.922 2157.33
644.877 2138.62
644.832 2158.92
644.786 2238.86
644.741 2222.44
644.696 2231.26
644.65 2175.87
644.605 2157.17
644.56 2170.58
644.514 2128.98
644.469 2160.71
644.424 2190.14
644.378 2153.14
644.333 2116.14
644.288 2145.57
644.242 2117.75
644.197 2156.32
644.152 2142.24
644.106 2221.98
644.061 2166.71
644.016 2127.47
643.97 2088.24
643.925 2172.52
643.88 2147.01
643.834 2103.23
643.789 2137.17
643.744 2203.1
643.698 2166.19
643.653 2142.99
643.608 2083.25
643.562 2133.16
643.517 2139.66
643.472 2130.18
643.426 2088.75
643.381 2104.38
643.336 2133.71
643.29 2192.69
643.245 2169.52
643.2 2171.45
643.154 2141.45
643.109 2109.18
643.064 2101.99
643.018 2156.36
642.973 2160.57
642.928 2089.58
642.882 2112.02
642.837 2184.57
642.792 2104.5
642.746 2186.14
642.701 2051.45
642.655 2183.15
642.61 2150.93
642.565 2166.52
642.519 2166.16
642.474 2156.71
642.429 2179.11
642.383 2128.72
642.338 2132.92
642.293 2143.94
642.247 2104.95
642.202 2115.97
642.156 2140.62
642.111 2099.38
642.066 2069.51
642.02 2198.64
641.975 2034.77
641.93 2218.36
641.884 2118.11
641.839 2179.05
641.793 2133.3
641.748 2123.88
641.703 2123.53
641.657 2014.31
641.612 2143.26
641.567 2102.09
641.521 2138.02
641.476 2142.21
641.43 2089.73
641.385 2141.51
641.34 2177.42
641.294 2140.82
641.249 2133.67
641.203 2097.09
641.158 2083.16
641.113 2107.73
641.067 2218.3
641.022 2188.52
640.977 2163.27
640.931 2171.97
640.886 2128.63
640.84 2064.96
640.795 2100.8
640.75 2098.2
640.704 2093.34
640.659 2099.78
640.613 2083.62
640.568 2117.17
640.523 2098.75
640.477 2143.59
640.432 2131.95
640.386 2138.37
640.341 2167.37
640.295 2137.68
640.25 2141.84
640.205 2125.7
640.159 2141.14
640.114 2145.31
640.068 2115.64
640.023 2142.35
639.978 2155.53
639.932 2137.14
639.887 2134.54
639.841 2204.06
639.796 2165.39
639.751 2151.52
639.705 2133.15
639.66 2058.48
639.614 2103.18
639.569 2177.14
639.523 2161.02
639.478 2194.43
639.433 2153.57
639.387 2090.22
639.342 2184.36
639.296 2139.02
639.251 2118.43
639.205 2120.33
639.16 2153.71
639.115 2142.12
639.069 2182.22
639.024 2130.18
638.978 2147.81
638.933 2035.15
638.887 2151.6
638.842 2126.55
638.796 2189.07
638.751 2083.2
638.706 2134.49
638.66 2167.8
638.615 2140.52
638.569 2232.15
638.524 2079.26
638.478 2112.56
638.433 2177.24
638.387 2156.71
638.342 2178.77
638.297 2140.32
638.251 2119.8
638.206 2074.64
638.16 2110.15
638.115 2080.68
638.069 2136.33
638.024 2115.83
637.978 2077.43
637.933 2186.76
637.887 2123.74
637.842 2165.91
637.797 2134.23
637.751 2180.86
637.706 2099.99
637.66 2180.15
637.615 2182.02
637.569 2152.61
637.524 2150.02
637.478 2172.02
637.433 2156.02
637.387 2128.86
637.342 2119.58
637.296 2090.2
637.251 2136.75
637.205 2147.56
637.16 2115.96
637.115 2102.23
637.069 2177.75
637.024 2143.93
636.978 2243.95
636.933 2183.37
636.887 2169.63
636.842 2193.8
636.796 2233.57
636.751 2179.71
636.705 2221.69
636.66 2063.14
636.614 2140.77
636.569 2169.37
636.523 2135.62
636.478 2161.98
636.432 2119.33
636.387 2219.15
636.341 2209.88
636.296 2189.5
636.25 2149.09
636.205 2150.96
636.159 2103.91
636.114 2161.38
636.068 2143.24
636.023 2105.1
635.977 2162.54
635.932 2171.07
635.886 2148.5
635.841 2197.02
635.795 2256.63
635.75 2127.46
635.704 2264.77
635.659 2128.98
635.613 2070.92
635.568 2152.69
635.522 2210.03
635.477 2163.08
635.431 2118.36
635.386 2235.56
635.34 2181.97
635.295 2190.48
635.249 2163.52
635.204 2251.82
635.158 2147.3
635.113 2195.69
635.067 2168.75
635.022 2199.4
634.976 2205.69
634.931 2154.4
634.885 2160.69
634.84 2197.96
634.794 2082.52
634.748 2161.84
634.703 2141.57
634.657 2161.13
634.612 2202.79
634.566 2131.67
634.521 2142.38
634.475 2192.87
634.43 2170.4
634.384 2159.0
634.339 2187.37
634.293 2211.31
634.248 2193.28
634.202 2142.12
634.157 2137.36
634.111 2163.5
634.065 2189.63
634.02 2162.79
633.974 2171.26
633.929 2089.27
633.883 2128.63
633.838 2225.32
633.792 2152.19
633.747 2193.73
633.701 2184.55
633.656 2261.33
633.61 2201.46
633.565 2242.96
633.519 2172.1
633.473 2112.27
633.428 2153.77
633.382 2221.67
633.337 2304.96
633.291 2176.92
633.246 2196.37
633.2 2209.21
633.155 2255.04
633.109 2151.29
633.063 2190.52
633.018 2198.96
632.972 2196.4
632.927 2268.58
632.881 2228.64
632.836 2175.54
632.79 2194.95
632.744 2137.48
632.699 2209.61
632.653 2167.52
632.608 2239.62
632.562 2215.1
632.517 2146.69
632.471 2267.04
632.425 2240.34
632.38 2182.93
632.334 2239.6
632.289 2252.39
632.243 2177.47
632.198 2302.08
632.152 2224.97
632.106 2226.8
632.061 2252.73
632.015 2230.45
631.97 2243.23
631.924 2183.72
631.879 2152.7
631.833 2285.91
631.787 2246.13
631.742 2197.6
631.696 2219.12
631.651 2192.5
631.605 2216.21
631.559 2233.34
631.514 2162.99
631.468 2236.98
631.423 2230.05
631.377 2258.1
631.331 2220.57
631.286 2231.13
631.24 2226.4
631.195 2202.0
631.149 2203.82
631.103 2260.23
631.058 2150.69
631.012 2135.05
630.967 2224.19
630.921 2195.46
630.875 2203.82
630.83 2212.19
630.784 2144.2
630.739 2141.67
630.693 2219.81
630.647 2162.76
630.602 2236.52
630.556 2129.36
630.511 2290.26
630.465 2276.81
630.419 2248.11
630.374 2212.89
630.328 2219.06
630.283 2201.28
630.237 2183.5
630.191 2194.02
630.146 2202.36
630.1 2262.93
630.054 2201.64
630.009 2188.22
629.963 2190.04
629.918 2213.59
629.872 2248.01
629.826 2173.73
629.781 2186.42
629.735 2142.59
629.689 2220.46
629.644 2283.09
629.598 2178.46
629.553 2204.15
629.507 2110.43
629.461 2168.69
629.416 2220.43
629.37 2176.66
629.324 2191.49
629.279 2273.56
629.233 2234.14
629.187 2194.74
629.142 2265.93
629.096 2226.53
629.051 2215.32
629.005 2193.29
628.959 2130.08
628.914 2238.06
628.868 2127.21
628.822 2111.7
628.777 2102.69
628.731 2201.94
628.685 2186.42
628.64 2268.3
628.594 2187.86
628.548 2155.04
628.503 2221.75
628.457 2171.63
628.411 2212.36
628.366 2131.99
628.32 2220.28
628.274 2172.36
628.229 2197.93
628.183 2214.86
628.138 2236.09
628.092 2166.6
628.046 2222.39
628.001 2150.77
627.955 2197.91
627.909 2173.8
627.864 2158.33
627.818 2153.66
627.772 2198.61
627.727 2209.03
627.681 2195.73
627.635 2223.4
627.59 2160.5
627.544 2149.36
627.498 2222.29
627.453 2189.6
627.407 2169.84
627.361 2201.8
627.315 2128.2
627.27 2158.0
627.224 2211.47
627.178 2247.71
627.133 2139.7
627.087 2193.15
627.041 2227.22
626.996 2179.52
626.95 2136.13
626.904 2217.51
626.859 2219.29
626.813 2214.63
626.767 2207.81
626.722 2145.11
626.676 2078.13
626.63 2234.64
626.585 2298.72
626.539 2180.2
626.493 2171.25
626.447 2226.72
626.402 2277.88
626.356 2112.21
626.31 2212.73
626.265 2233.83
626.219 2231.31
626.173 2209.49
626.128 2155.5
626.082 2146.57
626.036 2152.64
625.99 2173.72
625.945 2164.79
625.899 2164.43
625.853 2215.49
625.808 2232.26
625.762 2199.76
625.716 2139.43
625.671 2239.72
625.625 2121.6
625.579 2236.83
625.533 2150.85
625.488 2180.45
625.442 2237.86
625.396 2211.82
625.351 2187.92
625.305 2204.67
625.259 2249.2
625.213 2184.69
625.168 2248.45
625.122 2213.89
625.076 2136.6
625.031 2149.06
624.985 2165.79
624.939 2163.3
624.893 2171.48
624.848 2230.89
624.802 2164.35
624.756 2200.27
624.71 2150.83
624.665 2203.81
624.619 2207.71
624.573 2245.73
624.528 2234.69
624.482 2189.55
624.436 2180.66
624.39 2259.15
624.345 2167.15
624.299 2145.48
624.253 2140.87
624.207 2180.98
624.162 2187.0
624.116 2156.83
624.07 2130.93
624.024 2185.91
623.979 2125.96
623.933 2187.31
623.887 2206.09
623.841 2137.66
623.796 2167.08
623.75 2175.22
623.704 2170.61
623.658 2227.64
623.613 2167.76
623.567 2129.15
623.521 2094.8
623.475 2139.06
623.43 2162.07
623.384 2176.57
623.338 2229.29
623.292 2110.04
623.247 2183.98
623.201 2181.49
623.155 2155.67
623.109 2178.64
623.064 2176.16
623.018 2131.26
622.972 2173.31
622.926 2194.15
622.881 2181.07
622.835 2178.58
622.789 2214.24
622.743 2135.49
622.698 2291.88
622.652 2238.55
622.606 2147.12
622.56 2115.01
622.514 2169.69
622.469 2237.06
622.423 2141.46
622.377 2168.61
622.331 2157.67
622.286 2125.58
622.24 2163.29
622.194 2156.59
622.148 2168.91
622.102 2145.3
622.057 2138.6
622.011 2161.49
621.965 2112.54
621.919 2264.26
621.874 2109.72
621.828 2172.71
621.782 2174.46
621.736 2176.21
621.69 2182.18
621.645 2167.04
621.599 2168.79
621.553 2166.32
621.507 2111.12
621.461 2104.45
621.416 2222.16
621.37 2141.69
621.324 2156.08
621.278 2204.19
621.232 2182.75
621.187 2241.37
621.141 2120.94
621.095 2129.01
621.049 2160.24
621.003 2155.67
620.958 2117.42
620.912 2167.57
620.866 2131.44
620.82 2189.99
620.774 2155.97
620.729 2077.8
620.683 2090.07
620.637 2135.97
620.591 2120.9
620.545 2135.25
620.5 2176.92
620.454 2138.74
620.408 2066.96
620.362 2049.82
620.316 2078.87
620.271 2191.9
620.225 2021.5
620.179 2098.82
620.133 2098.47
620.087 2054.05
620.041 2129.23
619.996 2093.22
619.95 2109.64
619.904 2197.35
619.858 2199.08
619.812 2106.49
619.766 2158.53
619.721 2116.26
619.675 2147.33
619.629 2077.85
619.583 2150.8
619.537 2075.06
619.492 2028.65
619.446 2128.79
619.4 2025.88
619.354 2036.01
619.308 2054.49
619.262 2125.27
619.217 2158.38
619.171 2038.82
619.125 2122.11
619.079 2113.4
619.033 2138.12
618.987 2137.76
618.941 2097.71
618.896 2151.67
618.85 2174.28
618.804 2090.39
618.758 2067.07
618.712 2083.43
618.666 2131.08
618.621 2101.51
618.575 2115.76
618.529 2119.58
618.483 2073.34
618.437 2131.38
618.391 2033.02
618.345 2134.84
618.3 2096.96
618.254 2063.26
618.208 2160.85
618.162 2075.07
618.116 2083.05
618.07 2126.44
618.024 2042.79
617.979 2023.71
617.933 2031.7
617.887 2058.41
617.841 2012.29
617.795 2080.61
617.749 2113.54
617.703 2113.19
617.658 2106.6
617.612 2131.19
617.566 2060.15
617.52 2030.71
617.474 2107.26
617.428 2015.48
617.382 1994.37
617.336 2072.96
617.291 2118.3
617.245 2126.25
617.199 2088.53
617.153 2027.98
617.107 2114.81
617.061 2158.03
617.015 2056.01
616.969 2047.36
616.924 2038.72
616.878 2025.94
616.832 2075.36
616.786 2072.93
616.74 2060.15
616.694 2097.11
616.648 2044.96
616.602 2075.68
616.556 2079.48
616.511 2062.56
616.465 2047.72
616.419 2045.31
616.373 2096.71
616.327 2125.33
616.281 2050.48
616.235 2145.3
616.189 2053.93
616.143 2068.06
616.098 2069.78
616.052 2069.43
616.006 2054.62
615.96 2039.8
615.914 2051.86
615.868 2055.64
615.822 2082.15
615.776 1976.47
615.73 2056.67
615.684 2062.52
615.639 2080.75
615.593 2121.68
615.547 2065.61
615.501 2104.46
615.455 1955.58
615.409 2101.69
615.363 2020.91
615.317 2032.94
615.271 2088.26
615.225 2073.48
615.179 2083.43
615.134 2048.05
615.088 2072.43
615.042 2043.24
614.996 2098.5
614.95 2083.74
614.904 2025.74
614.858 2093.33
614.812 2123.84
614.766 2092.62
614.72 2069.64
614.674 2102.2
614.628 1996.96
614.582 2017.19
614.537 2012.73
614.491 2065.84
614.445 2092.21
614.399 2034.32
614.353 2085.34
614.307 2037.74
614.261 2035.34
614.215 2100.71
614.169 2042.87
614.123 2009.68
614.077 2036.02
614.031 2068.51
613.985 2041.49
613.939 2061.66
613.893 2065.42
613.848 2120.44
613.802 2113.93
613.756 2041.82
613.71 2109.12
613.664 2045.23
613.618 2008.0
613.572 2046.59
613.526 2089.26
613.48 2011.08
613.434 2102.88
613.388 2075.92
613.342 2044.86
613.296 2038.38
613.25 2078.96
613.204 2017.23
613.158 2041.43
613.112 2176.07
613.066 2034.61
613.02 2054.71
612.975 2068.67
612.929 2101.03
612.883 2123.15
612.837 2045.15
612.791 2083.62
612.745 2101.65
612.699 2064.54
612.653 2166.27
612.607 2165.91
612.561 2141.05
612.515 2212.11
612.469 2193.37
612.423 2162.4
612.377 2229.35
612.331 2300.34
612.285 2261.22
612.239 2177.25
612.193 2339.94
612.147 2245.8
612.101 2245.42
612.055 2220.6
612.009 2216.15
611.963 2175.04
611.917 2142.09
611.871 2076.58
611.825 2078.27
611.779 2084.02
611.733 2104.02
611.687 2089.42
611.641 2085.0
611.595 2107.02
611.549 2102.59
611.503 2051.41
611.457 1994.14
611.411 2077.14
611.365 1983.31
611.32 2090.66
611.274 2053.74
611.228 1941.68
611.182 2081.47
611.136 1967.42
611.09 2032.05
611.044 1972.84
610.998 2025.27
610.952 1947.82
610.906 2026.61
610.86 2001.93
610.814 1950.89
610.768 1958.67
610.722 2037.4
610.676 2026.92
610.63 1998.21
610.584 2030.29
610.538 1981.32
610.492 1974.91
610.446 1921.92
610.4 2002.59
610.354 1963.78
610.308 1987.74
610.262 1920.62
610.216 1910.17
610.17 1998.87
610.124 1998.53
610.078 1975.94
610.031 1937.19
609.985 1979.32
609.939 1916.32
609.893 1905.89
609.847 1974.27
609.801 1973.93
609.755 2024.1
609.709 1983.36
609.663 1948.69
609.617 1954.42
609.571 1968.22
609.525 1917.43
609.479 1941.32
609.433 1999.5
609.387 1920.49
609.341 1910.07
609.295 1933.95
609.249 1921.52
609.203 1999.82
609.157 1900.72
609.111 1968.91
609.065 1970.59
609.019 1952.13
608.973 1971.94
608.927 1941.39
608.881 1933.01
608.835 1924.63
608.789 1878.01
608.743 1885.74
608.697 1925.66
608.651 1921.31
608.605 1908.91
608.559 1991.05
608.513 1986.69
608.467 1944.13
608.421 1913.65
608.374 1967.58
608.328 1913.0
608.282 1938.79
608.236 1988.68
608.19 1950.18
608.144 1891.61
608.098 1947.51
608.052 1933.13
608.006 1946.85
607.96 1896.35
607.914 1920.1
607.868 1998.01
607.822 1987.64
607.776 1901.085
607.73 1814.53
607.684 2018.7
607.638 1906.12
607.592 1961.9
607.546 1917.49
607.5 1911.15
607.453 1876.78
607.407 1906.5
607.361 1914.18
607.315 1933.87
607.269 1987.59
607.223 1927.21
607.177 1924.88
607.131 1898.55
607.085 1932.23
607.039 1909.9
606.993 1873.58
606.947 1907.25
606.901 1924.92
606.855 1964.56
606.809 1936.25
606.762 1907.95
606.716 1957.56
606.67 1945.24
606.624 1938.92
606.578 1978.52
606.532 1922.29
606.486 1931.94
606.44 1891.71
606.394 1917.32
606.348 1946.91
606.302 1918.66
606.256 1862.5
606.209 2025.67
606.163 1971.5
606.117 1861.55
606.071 1885.14
606.025 1888.8
605.979 1962.19
605.933 1944.6000000000001
605.887 1927.01
605.841 1909.42
605.795 1944.92
605.749 1892.84
605.703 1932.32
605.656 1910.1
605.61 1877.95
605.564 1899.51
605.518 1938.96
605.472 1932.66
605.426 1902.51
605.38 1951.88
605.334 1858.14
605.288 1959.16
605.242 1889.29
605.195 1859.17
605.149 1898.58
605.103 1959.81
605.057 1860.21
605.011 1836.07
604.965 1929.03
604.919 1946.56
604.873 1904.57
604.827 1973.67
604.78 1919.78
604.734 1959.11
604.688 1820.0
604.642 1898.98
604.596 1918.47
604.55 1838.88
604.504 1874.23
604.458 1842.21
604.412 1859.72
604.365 1887.13
604.319 1870.97
604.273 1868.67
604.227 1860.43
604.181 1808.66
604.135 1818.25
604.089 1859.48
604.043 1843.34
603.996 1910.25
603.95 1921.79
603.904 1917.51
603.858 1806.5
603.812 1851.64
603.766 1918.5
603.72 1837.18
603.674 1909.94
603.627 1919.49
603.581 1836.23
603.535 1920.81
603.489 1888.9
603.443 1902.39
603.397 1860.63
603.351 1820.85
603.305 1846.18
603.258 1893.2
603.212 1853.44
603.166 1809.75
603.12 1860.69
603.074 1889.93
603.028 1846.26
602.982 1938.53
602.935 1841.69
602.889 1831.52
602.843 1854.84
602.797 1832.86
602.751 1877.82
602.705 1914.89
602.659 1851.6
602.612 1870.96
602.566 1839.16
602.52 1864.41
602.474 1852.3
602.428 1905.06
602.382 1847.73
602.335 1865.1
602.289 1851.03
602.243 1870.36
602.197 1836.64
602.151 1954.17
602.105 1812.45
602.059 1861.22
602.012 1835.38
601.966 1856.66
601.92 1905.4
601.874 1814.82
601.828 1794.89
601.782 1827.92
601.735 1862.91
601.689 1848.86
601.643 1897.55
601.597 1903.11
601.551 1859.67
601.505 1900.49
601.458 1841.4
601.412 1866.55
601.366 1811.39
601.32 1903.11
601.274 1885.16
601.228 1886.79
601.181 1767.1
601.135 1852.88
601.089 1840.83
601.043 1797.48
600.997 1826.51
600.95 1898.54
600.904 1833.7
600.858 1811.88
600.812 1799.85
600.766 1881.6
600.72 1848.07
600.673 1802.83
600.627 1863.06
600.581 1892.02
600.535 1837.04
600.489 1852.34
600.442 1830.55
600.396 1845.85
600.35 1837.72
600.304 1802.3
600.258 1817.59
600.211 1885.52
600.165 1818.91
600.119 1832.25
600.073 1861.16
600.027 1870.59
599.98 1852.73
599.934 1790.08
599.888 1791.72
599.842 1865.41
599.796 1793.05
599.749 1769.38
599.703 1772.97
599.657 1786.29
599.611 1821.0
599.565 1906.27
599.518 1830.1
599.472 1773.39
599.426 1771.14
599.38 1815.54
599.334 1830.78
599.287 1801.32
599.241 1855.41
599.195 1816.24
599.149 1800.39
599.103 1850.56
599.056 1834.71
599.01 1847.99
598.964 1758.39
598.918 1750.32
598.871 1837.33
598.825 1767.18
598.779 1871.61
598.733 1754.94
598.687 1787.59
598.64 1762.08
598.594 1779.22
598.548 1856.43
598.502 1757.3
598.455 1743.44
598.409 1776.06
598.363 1795.12
598.317 1818.04
598.271 1775.14
598.224 1753.55
598.178 1820.97
598.132 1721.98
598.086 1799.07
598.039 1792.95
597.993 1695.95
597.947 1790.4
597.901 1790.09
597.855 1780.12
597.808 1797.2
597.762 1804.62
597.716 1775.33
597.67 1802.07
597.623 1786.31
597.577 1801.45
597.531 1828.16
597.485 1700.46
597.438 1723.32
597.392 1717.23
597.346 1670.64
597.3 1730.14
597.253 1731.77
597.207 1710.26
597.161 1682.98
597.115 1701.96
597.068 1732.5
597.022 1772.67
596.976 1758.88
596.93 1731.61
596.883 1787.16
596.837 1757.96
596.791 1721.08
596.745 1743.88
596.698 1743.58
596.652 1752.9
596.606 1712.2
596.56 1731.14
596.513 1748.15
596.467 1705.54
596.421 1764.84
596.375 1695.34
596.328 1696.97
596.282 1671.7
596.236 1677.17
596.189 1715.3
596.143 1722.68
596.097 1758.87
596.051 1683.69
596.004 1669.96
595.958 1742.6
595.912 1736.54
595.866 1736.24
595.819 1678.4
595.773 1708.79
595.727 1739.18
595.681 1725.46
595.634 1727.07
595.588 1755.52
595.542 1741.81
595.495 1714.68
595.449 1723.96
595.403 1666.21
595.357 1685.07
595.31 1717.32
595.264 1762.97
595.218 1716.73
595.171 1653.29
595.125 1744.83
595.079 1690.97
595.033 1713.63
594.986 1717.15
594.94 1615.53
594.894 1712.74
594.847 1735.37
594.801 1677.75
594.755 1681.28
594.709 1753.57
594.662 1636.77
594.616 1628.85
594.57 1678.2
594.523 1672.18
594.477 1679.53
594.431 1665.88
594.384 1659.87
594.338 1608.08
594.292 1678.36
594.246 1683.79
594.199 1653.0
594.153 1679.4
594.107 1698.17
594.06 1659.76
594.014 1764.26
593.968 1613.46
593.921 1691.27
593.875 1689.08
593.829 1671.65
593.783 1585.69
593.736 1722.45
593.69 1674.58
593.644 1712.34
593.597 1588.4
593.551 1666.1
593.505 1660.11
593.458 1694.04
593.412 1619.61
593.366 1664.95
593.319 1655.15
593.273 1698.57
593.227 1662.18
593.18 1718.87
593.134 1671.1
593.088 1667.01
593.042 1613.57
592.995 1584.82
592.949 1624.39
592.903 1622.21
592.856 1714.88
592.81 1587.51
592.764 1642.23
592.717 1693.13
592.671 1698.52
592.625 1631.89
592.578 1639.19
592.532 1673.01
592.486 1564.74
592.439 1615.61
592.393 1636.15
592.347 1664.27
592.3 1656.41
592.254 1648.55
592.208 1589.6
592.161 1612.03
592.115 1600.4
592.069 1641.73
592.022 1635.77
591.976 1633.59
591.93 1599.28
591.883 1568.76
591.837 1674.32
591.791 1615.45
591.744 1658.62
591.698 1599.78
591.652 1635.38
591.605 1629.43
591.559 1602.72
591.512 1591.12
591.466 1579.52
591.42 1584.9
591.373 1575.19
591.327 1914.42
591.281 1800.94
591.234 1581.91
591.188 1674.01
591.142 1568.17
591.095 1654.58
591.049 1620.38
591.003 1608.79
590.956 1602.86
590.91 1632.71
590.864 1591.01
590.817 1609.55
590.771 1558.45
590.724 1582.65
590.678 1588.01
590.632 1578.33
590.585 1532.92
590.539 1521.37
590.493 1541.78
590.446 1599.79
590.4 1539.36
590.354 1507.15
590.307 1610.23
590.261 1553.59
590.214 1543.93
590.168 1558.68
590.122 1532.12
590.075 1524.34
590.029 1537.22
589.983 1585.74
589.936 1611.73
589.89 1528.91
589.843 1590.54
589.797 1532.13
589.751 1541.23
589.704 1505.35
589.658 1625.04
589.612 1512.32
589.565 1585.12
589.519 1605.45
589.472 1509.65
589.426 1535.6
589.38 1509.125
589.333 1482.65
589.287 1452.44
589.24 1542.02
589.194 1552.97
589.148 1591.99
589.101 1507.54
589.055 1505.41
589.009 1538.8
588.962 1501.14
588.916 1513.96
588.869 1534.26
588.823 1511.57
588.777 1500.09
588.73 1522.24
588.684 1520.11
588.637 1624.4
588.591 1586.78
588.545 1571.58
588.498 1625.42
588.452 1602.74
588.405 1561.42
588.359 1538.77
588.313 1545.96
588.266 1547.55
588.22 1508.13
588.173 1481.78
588.127 1479.65
588.081 1544.61
588.034 1484.72
587.988 1542.2
587.941 1487.93
587.895 1483.94
587.848 1593.52
587.802 1503.9
587.756 1468.28
587.709 1518.26
587.663 1501.25
587.616 1523.3
587.57 1476.55
587.524 1517.19
587.477 1509.49
587.431 1479.49
587.384 1456.93
587.338 1462.25
587.291 1435.98
587.245 1409.73
587.199 1465.19
587.152 1503.93
587.106 1442.4
587.059 1434.73
587.013 1417.77
586.967 1525.14
586.92 1370.9
586.874 1487.51
586.827 1400.09
586.781 1475.86
586.734 1442.24
586.688 1427.15
586.642 1471.38
586.595 1439.62
586.549 1489.39
586.502 1448.38
586.456 1472.2
586.409 1440.47
586.363 1490.19
586.316 1495.49
586.27 1430.45
586.224 1446.86
586.177 1455.85
586.131 1435.25
586.084 1494.17
586.038 1440.29
585.991 1452.98
585.945 1426.85
585.898 1408.12
585.852 1446.67
585.806 1396.54
585.759 1366.74
585.713 1418.21
585.666 1460.43
585.62 1388.18
585.573 1393.47
585.527 1428.29
585.48 1455.71
585.434 1390.89
585.388 1445.98
585.341 1451.26
585.295 1425.19
585.248 1437.84
585.202 1406.26
585.155 1439.18
585.109 1473.93
585.062 1352.09
585.016 1414.48
584.969 1366.35
584.923 1421.34
584.877 1413.73
584.83 1404.28
584.784 1431.64
584.737 1394.59
584.691 1407.22
584.644 1423.52
584.598 1355.24
584.551 1434.05
584.505 1371.3
584.458 1354.52
584.412 1416.76
584.365 1368.74
584.319 1418.1
584.272 1375.61
584.226 1421.27
584.179 1459.57
584.133 1422.61
584.087 1438.87
584.04 1381.74
583.994 1377.82
583.947 1381.25
583.901 1390.18
583.854 1360.59
583.808 1356.69
583.761 1418.77
583.715 1370.87
583.668 1390.78
583.622 1432.68
583.575 1377.47
583.529 1419.35
583.482 1376.99
583.436 1374.91
583.389 1405.79
583.343 1476.92
583.296 1348.57
583.25 1346.5
583.203 1379.19
583.157 1347.86
583.11 1395.16
583.064 1349.21
583.017 1356.28
582.971 1322.24
582.924 1288.2
582.878 1364.7
582.831 1307.83
582.785 1366.04
582.738 1387.71
582.692 1371.04
582.645 1356.19
582.599 1335.88
582.552 1363.01
582.506 1391.96
582.459 1349.77
582.413 1395.12
582.366 1365.7
582.32 1374.57
582.273 1357.93
582.227 1361.33
582.18 1328.29
582.134 1355.39
582.087 1415.25
582.041 1303.92
581.994 1376.52
581.948 1332.58
581.901 1406.97
581.855 1295.72
581.808 1346.43
581.762 1346.2
581.715 1360.51
581.669 1305.71
581.622 1307.3
581.576 1259.8
581.529 1323.2
581.483 1321.14
581.436 1330.0
581.39 1306.14
581.343 1360.4
581.297 1354.71
581.25 1374.45
581.204 1259.84
581.157 1310.44
581.11 1350.13
581.064 1250.1
581.017 1317.0
580.971 1333.09
580.924 1350.98
580.878 1298.17
580.831 1301.56
580.785 1355.71
580.738 1302.91
580.692 1273.69
580.645 1300.64
580.599 1256.94
580.552 1294.75
580.506 1347.02
580.459 1261.71
580.413 1279.58
580.366 1259.45
580.319 1331.6
580.273 1313.27
580.226 1294.95
580.18 1350.78
580.133 1316.19
580.087 1276.19
580.04 1335.6
579.994 1288.39
579.947 1280.93
579.901 1338.51
579.854 1280.48
579.807 1254.97
579.761 1314.33
579.714 1296.04
579.668 1256.11
579.621 1219.8
579.575 1315.2
579.528 1314.97
579.482 1289.48
579.435 1312.7
579.388 1238.55
579.342 1263.56
579.295 1312.0
579.249 1320.78
579.202 1266.49
579.156 1314.9
579.109 1226.42
579.063 1319.84
579.016 1238.59
578.969 1299.57
578.923 1266.95
578.876 1266.72
578.83 1327.66
578.783 1264.47
578.737 1269.64
578.69 1292.79
578.644 1287.17
578.597 1319.3
578.55 1272.34
578.504 1293.67
578.457 1288.05
578.411 1273.46
578.364 1305.55
578.318 1240.68
578.271 1244.05
578.224 1283.32
578.178 1236.43
578.131 1286.45
578.085 1288.02
578.038 1262.68
577.992 1289.35
577.945 1307.05
577.898 1235.12
577.852 1254.61
577.805 1263.35
577.759 1250.58
577.712 1237.82
577.665 1203.57
577.619 1251.71
577.572 1222.84
577.526 1235.15
577.479 1252.83
577.433 1247.24
577.386 1259.54
577.339 1237.85
577.293 1305.59
577.246 1278.54
577.2 1206.8
577.153 1217.31
577.106 1206.37
577.06 1236.53
577.013 1214.87
576.967 1239.66
576.92 1234.09
576.873 1257.08
576.827 1196.15
576.78 1206.65
576.734 1251.05
576.687 1249.05
576.64 1239.9
576.594 1214.71
576.547 1237.68
576.501 1253.51
576.454 1244.37
576.407 1238.8
576.361 1238.58
576.314 1247.27
576.268 1197.16
576.221 1259.29
576.174 1239.48
576.128 1226.79
576.081 1244.38
576.035 1196.1
575.988 1227.92
575.941 1231.26
575.895 1239.93
575.848 1186.35
575.802 1176.36
575.755 1166.37
575.708 1208.83
575.662 1231.72
575.615 1251.05
575.568 1201.07
575.522 1197.31
575.475 1205.97
575.429 1186.23
575.382 1217.97
575.335 1200.0
575.289 1198.02
575.242 1197.8
575.195 1146.14
575.149 1213.34
575.102 1174.1
575.056 1221.77
575.009 1209.14
574.962 1162.84
574.916 1185.67
574.869 1203.18
574.822 1183.48
574.776 1193.89
574.729 1207.85
574.683 1202.32
574.636 1150.76
574.589 1203.66
574.543 1215.84
574.496 1212.08
574.449 1126.94
574.403 1167.43
574.356 1222.04
574.309 1181.15
574.263 1180.94
574.216 1186.03
574.17 1148.71
574.123 1189.14
574.076 1164.2
574.03 1216.98
573.983 1160.25
573.936 1191.83
573.89 1159.84
573.843 1170.22
573.796 1161.19
573.75 1217.44
573.703 1166.06
573.656 1141.16
573.61 1151.54
573.563 1176.02
573.517 1149.36
573.47 1138.58
573.423 1120.76
573.377 1280.89
573.33 1248.075
573.283 1215.26
573.237 1174.55
573.19 1081.02
573.143 1126.6
573.097 1231.99
573.05 1187.78
573.003 1145.34
572.957 1215.5
572.91 1132.62
572.863 1164.07
572.817 1133.98
572.77 1140.8
572.723 1172.23
572.677 1170.27
572.63 1129.65
572.583 1175.12
572.537 1146.81
572.49 1115.0
572.443 1144.64
572.397 1137.42
572.35 1179.33
572.303 1193.16
572.257 1098.21
572.21 1138.35
572.163 1146.92
572.117 1188.79
572.07 1137.74
572.023 1172.59
571.977 1107.54
571.93 1119.61
571.883 1101.89
571.837 1182.26
571.79 1141.77
571.743 1118.81
571.697 1148.36
571.65 1116.65
571.603 1090.21
571.557 1128.5
571.51 1140.54
571.463 1124.6
571.416 1124.4
571.37 1083.98
571.323 1110.01
571.276 1116.8
571.23 1137.57
571.183 1128.63
571.136 1102.22
571.09 1074.08
571.043 1112.31
570.996 1101.63
570.95 1106.67
570.903 1158.83
570.856 1106.27
570.809 1193.3
570.763 1091.92
570.716 1128.35
570.669 1081.07
570.623 1147.12
570.576 1174.8
570.529 1103.14
570.483 1073.32
570.436 1095.77
570.389 1079.9
570.343 1147.62
570.296 1100.41
570.249 1082.8
570.202 1084.35
570.156 1103.29
570.109 1064.82
570.062 1137.69
570.016 1128.79
569.969 1114.67
569.922 1095.35
569.875 1136.87
569.829 1058.46
569.782 1091.28
569.735 1071.97
569.689 1089.15
569.642 1047.27
569.595 1123.49
569.548 1072.94
569.502 1123.08
569.455 1070.82
569.408 1081.04
569.362 1060.02
569.315 1143.09
569.268 1042.3
569.221 1075.05
569.175 1090.46
569.128 1033.07
569.081 1034.61
569.035 1089.88
568.988 1075.82
568.941 1058.31
568.894 1101.41
568.848 1049.27
568.801 1139.1
568.754 1109.47
568.707 1076.39
568.661 1000.06
568.614 1103.68
568.567 1044.67
568.521 1051.4
568.474 1049.48
568.427 1057.94
568.38 1092.31
568.334 1017.81
568.287 1114.38
568.24 1032.99
568.193 1050.08
568.147 1084.42
568.1 1065.24
568.053 1087.48
568.006 1038.96
567.96 1097.44
567.913 1019.61
567.866 1029.78
567.82 996.823
567.773 1010.44
567.726 1048.18
567.679 1037.65
567.633 1059.87
567.586 1051.06
567.539 1042.26
567.492 1002.45
567.446 1062.55
567.399 1034.81
567.352 986.418
567.305 1049.92
567.259 1032.53
567.212 1078.79
567.165 997.747
567.118 1019.93
567.072 1021.46
567.025 1026.44
566.978 986.712
566.931 1000.28
566.885 988.074
566.838 1058.34
566.791 1092.5
566.744 1016.74
566.697 1021.7
566.651 1036.97
566.604 993.869
566.557 997.122
566.51 1041.56
566.464 986.468
566.417 979.4295
566.37 972.391
566.323 1040.8
566.277 994.326
566.23 1035.28
566.183 1021.39
566.136 1038.34
566.09 985.041
566.043 966.022
565.996 1029.21
565.949 1018.75
565.902 944.955
565.856 1030.36
565.809 971.993
565.762 1016.3
565.715 992.169
565.669 995.41
565.622 991.81
565.575 986.501
565.528 1001.71
565.481 1013.49
565.435 1033.81
565.388 1004.58
565.341 949.737
565.294 1002.51
565.248 998.912
565.201 1008.97
565.154 983.187
565.107 984.716
565.06 996.481
565.014 986.065
564.967 1006.35
564.92 984.002
564.873 1021.34
564.826 906.931
564.78 940.856
564.733 996.922
564.686 996.741
564.639 976.118
564.593 992.973
564.546 938.3
564.499 1002.83
564.452 937.96
564.405 937.79
564.359 981.863
564.312 964.671
564.265 1013.83
564.218 969.423
564.171 926.737
564.125 972.472
564.078 972.295
564.031 963.621
563.984 983.837
563.937 946.283
563.891 964.795
563.844 939.146
563.797 923.694
563.75 993.13
563.703 940.332
563.657 914.705
563.61 979.015
563.563 949.998
563.516 953.218
563.469 925.912
563.422 952.871
563.376 964.565
563.329 976.254
563.282 901.515
563.235 901.351
563.188 946.924
563.142 945.058
563.095 943.193
563.048 878.686
563.001 963.163
562.954 917.293
562.908 922.202
562.861 927.11
562.814 940.473
562.767 943.685
562.72 906.314
562.673 958.557
562.627 946.55
562.58 970.038
562.533 898.896
562.486 900.421
562.439 918.837
562.392 911.915
562.346 906.684
562.299 931.84
562.252 924.92
562.205 897.751
562.158 924.583
562.111 895.737
562.065 893.888
562.018 913.96
561.971 918.852
561.924 903.514
561.877 921.888
561.83 925.09
561.784 935.03
561.737 904.54
561.69 929.637
561.643 909.262
561.596 893.945
561.549 898.831
561.503 950.837
561.456 885.043
561.409 900.022
561.362 889.766
561.315 919.874
561.268 911.3
561.222 932.987
561.175 899.202
561.128 885.595
561.081 853.511
561.034 910.469
560.987 900.226
560.94 884.949
560.894 909.971
560.847 896.376
560.8 887.821
560.753 872.557
560.706 870.721
560.659 855.465
560.613 860.34
560.566 893.719
560.519 881.82
560.472 873.279
560.425 893.229
560.378 911.497
560.331 896.254
560.285 877.666
560.238 934.443
560.191 857.254
560.144 853.749
560.097 858.614
560.05 888.579
560.003 881.724
559.956 866.508
559.91 891.437
559.863 876.224
559.816 886.096
559.769 890.948
559.722 884.1
559.675 870.571
559.628 948.933
559.582 831.835
559.535 880.114
559.488 874.944
559.441 834.718
559.394 871.286
559.347 851.101
559.3 890.99
559.253 855.794
559.207 868.981
559.16 868.822
559.113 843.654
559.066 871.838
559.019 863.345
558.972 846.523
558.925 854.699
558.878 856.208
558.832 881.034
558.785 849.234
558.738 812.452
558.691 850.588
558.644 862.082
558.597 831.973
558.55 835.148
558.503 830.005
558.456 859.788
558.41 852.98
558.363 869.448
558.316 806.128
558.269 800.995
558.222 875.616
558.175 852.199
558.128 817.164
558.081 868.493
558.034 853.391
557.988 863.194
557.941 851.418
557.894 828.031
557.847 849.447
557.8 872.514
557.753 849.136
557.706 830.74
557.659 785.826
557.612 860.272
557.565 848.513
557.519 858.299
557.472 805.129
557.425 770.199
557.378 826.363
557.331 827.867
557.284 844.269
557.237 834.184
557.19 817.482
557.143 845.459
557.096 818.837
557.049 846.803
557.003 815.229
556.956 831.612
556.909 833.113
556.862 824.696
556.815 850.983
556.768 831.002
556.721 840.76
556.674 787.758
556.627 820.637
556.58 827.09
556.533 892.961
556.487 844.939
556.44 829.934
556.393 800.088
556.346 803.239
556.299 794.847
556.252 807.891
556.205 784.664
556.158 820.779
556.111 817.332
556.064 792.469
556.017 825.268
555.97 798.765
555.923 824.965
555.877 813.289
555.83 834.538
555.783 801.47
555.736 824.358
555.689 766.627
555.642 833.924
555.595 800.88
555.548 792.512
555.501 820.312
555.454 764.279
555.407 818.367
555.36 791.929
555.313 798.354
555.266 804.776
555.22 784.923
555.173 797.913
555.126 824.03
555.079 784.49
555.032 805.677
554.985 825.216
554.938 829.985
554.891 819.992
554.844 806.723
554.797 785.263
554.75 794.953
554.703 773.502
554.656 824.152
554.609 809.257
554.562 802.556
554.515 776.207
554.468 792.437
554.421 828.304
554.375 846.155
554.328 775.635
554.281 773.856
554.234 776.985
554.187 816.093
554.14 825.754
554.093 804.348
554.046 859.775
553.999 777.904
553.952 800.635
553.905 769.448
553.858 774.207
553.811 762.632
553.764 804.943
553.717 749.292
553.67 775.268
553.623 819.184
553.576 786.402
553.529 766.682
553.482 792.636
553.435 771.291
553.388 811.907
553.341 779.157
553.295 777.383
553.248 814.717
553.201 803.162
553.154 789.983
553.107 745.867
553.06 778.294
553.013 841.639
552.966 761.73
552.919 753.453
552.872 758.195
552.825 806.856
552.778 777.432
552.731 757.775
552.684 777.144
552.637 770.499
552.59 773.607
552.543 744.215
552.496 802.564
552.449 781.299
552.402 786.027
552.355 774.516
552.308 753.268
552.261 759.621
552.214 761.104
552.167 830.731
552.12 798.133
552.073 718.511
552.026 791.351
551.979 778.234
551.932 807.269
551.885 795.774
551.838 747.015
551.791 769.558
551.744 772.655
551.697 774.132
551.65 754.558
551.603 760.894
551.556 789.888
551.509 749.284
551.462 758.853
551.415 737.682
551.368 779.599
551.321 772.986
551.274 766.375
551.227 740.369
551.18 783.87
551.133 751.406
551.086 723.801
551.039 762.435
550.992 776.829
550.945 791.218
550.898 741.024
550.851 792.539
550.804 750.432
550.757 763.201
550.71 740.475
550.663 761.305
550.616 728.912
550.569 773.922
550.522 727.029
550.475 759.129
550.428 789.606
550.381 718.569
550.334 731.323
550.287 739.24
550.24 740.713
550.193 726.086
550.146 775.85
550.099 769.269
550.052 732.118
550.005 744.852
549.958 712.545
549.911 784.779
549.864 681.731
549.817 741.084
549.77 718.445
549.723 734.381
549.676 718.178
549.629 764.629
549.582 783.76
549.535 730.624
549.488 712.828
549.441 781.718
549.394 709.354
549.347 757.359
549.3 747.593
549.253 757.078
549.206 716.845
549.159 758.4
549.112 769.48
549.065 745.296
549.018 753.169
548.971 745.018
548.924 738.472
548.877 720.718
548.83 771.825
548.783 728.455
548.736 749.128
548.689 731.384
548.642 723.248
548.595 715.114
548.548 751.77
548.5 722.844
548.453 705.122
548.406 746.555
548.359 703.261
548.312 731.895
548.265 733.356
548.218 669.323
548.171 696.349
548.124 752.109
548.077 741.59725
548.03 731.0855
547.983 720.57375
547.936 710.062
547.889 748.218
547.842 736.913
547.795 720.829
547.748 709.533
547.701 741.284
547.654 731.583
547.607 715.511
547.56 705.818
547.513 705.686
547.466 740.594
547.418 747.6806363636364
547.371 754.7672727272728
547.324 761.8539090909092
547.277 768.9405454545455
547.23 776.0271818181818
547.183 783.1138181818183
547.136 790.2004545454546
547.089 797.2870909090909
547.042 804.3737272727273
546.995 811.4603636363637
546.948 818.547
546.901 750.062
546.854 738.801
546.807 725.955
546.76 687.702
546.713 725.684
546.666 719.198
546.618 720.651
546.571 737.974
546.524 725.142
546.477 709.143
546.43 718.527
546.383 721.565
546.336 726.187
546.289 699.102
546.242 725.915
546.195 694.086
546.148 736.735
546.101 730.261
546.054 722.206
546.007 745.823
545.96 714.02
545.912 694.892
545.865 710.588
545.818 686.721
545.771 721.397
545.724 667.483
545.677 698.987
545.63 751.034
545.583 730.342
545.536 741.27
545.489 681.082
545.442 707.814
545.395 717.159
545.348 709.128
545.3 690.047
545.253 670.973
545.206 719.78
545.159 721.223
545.112 694.265
545.065 716.221
545.018 719.241
544.971 749.07
544.924 698.475
544.877 701.497
544.83 729.736
544.783 726.448
544.735 742.067
544.688 707.273
544.641 703.991
544.594 719.605
544.547 705.302
544.5 659.522
544.453 706.611
544.406 679.73
544.359 712.639
544.312 682.621
544.264 715.517
544.217 696.516
544.17 672.806
544.123 711.972
544.076 707.124
544.029 724.274
543.982 705.289
543.935 689.451
543.888 672.05
543.841 692.333
543.793 700.051
543.746 714.044
543.699 699.789
543.652 690.245
543.605 657.178
543.558 708.804
543.511 677.314
543.464 700.7
543.417 689.598
543.37 703.571
543.322 711.273
543.275 706.44
543.228 734.497
543.181 659.201
543.134 682.56
543.087 682.432
543.04 705.777
542.993 696.257
542.946 653.89
542.898 661.587
542.851 703.684
542.804 658.212
542.757 700.293
542.71 650.15
542.663 628.152
542.616 634.283
542.569 695.081
542.521 629.36
542.474 652.663
542.427 649.418
542.38 661.782
542.333 661.658
542.286 628.769
542.239 672.329
542.192 636.331
542.144 639.33
542.097 662.595
542.05 640.648
542.003 643.645
541.956 621.709
541.909 615.361
541.862 658.857
541.815 619.801
541.767 658.61
541.72 649.145
541.673 630.346
541.626 620.891
541.579 625.442
541.532 678.212
541.485 615.875
541.437 646.858
541.39 668.501
541.343 624.853
541.296 644.939
541.249 644.817
541.202 627.608
541.155 590.213
541.107 614.948
541.06 610.174
541.013 583.67
540.966 585.112
540.919 616.037
540.872 619.023
540.825 651.481
540.777 631.197
540.73 637.28
540.683 598.404
540.636 571.941
540.589 610.576
540.542 627.504
540.495 591.756
540.447 619.523
540.4 586.888
540.353 636.32
540.306 595.954
540.259 608.223
540.212 614.297
540.165 625.011
540.117 589.317
540.07 640.24
540.023 572.087
539.976 598.259
539.929 598.146
539.882 622.758
539.834 597.921
539.787 577.726
539.74 633.217
539.693 617.656
539.646 577.399
539.599 591.182
539.551 612.677
539.504 597.131
539.457 603.189
539.41 569.143
539.363 624.551
539.316 568.928
539.268 574.986
539.221 587.208
539.174 594.801
539.127 585.445
539.08 603.819
539.033 579.064
538.985 608.21
538.938 585.003
538.891 577.196
538.844 600.171
538.797 580.055
538.75 598.405
538.702 562.918
538.655 584.339
538.608 564.242
538.561 571.821
538.514 573.25
538.467 594.654
538.419 573.8054999999999
538.372 552.957
538.325 608.138
538.278 558.889
538.231 580.275
538.183 610.862
538.136 596.936
538.089 589.151
538.042 598.244
537.995 532.183
537.948 544.349
537.9 553.445
537.853 580.93
537.806 583.885
537.759 540.873
537.712 556.089
537.664 575.895
537.617 578.849
537.57 560.367
537.523 523.522
537.476 599.947
537.428 549.337
537.381 530.874
537.334 549.129
537.287 562.789
537.24 539.747
537.192 542.702
537.145 556.355
537.098 570.003
537.051 511.836
537.004 533.125
536.956 597.17
536.909 560.409
536.862 555.722
536.815 547.985
536.768 546.355
536.72 553.88
536.673 529.366
536.626 539.943
536.579 552.04
536.532 583.954
536.484 536.587
536.437 544.105
536.39 550.098
536.343 548.47
536.296 555.982
536.248 548.261
536.201 546.635
536.154 548.053
536.107 552.515
536.06 537.193
536.012 512.747
535.965 549.158
535.918 544.491
535.871 532.223
535.823 583.813
535.776 580.662
535.729 542.558
535.682 591.078
535.635 531.717
535.587 512.6335
535.54 493.55
535.493 519.268
535.446 528.277
535.399 526.659
535.351 562.978
535.304 543.148
535.257 517.257
535.21 514.126
535.162 547.387
535.115 516.962
535.068 507.77
535.021 527.374
534.974 528.789
534.926 525.658
534.879 533.131
534.832 513.344
534.785 548.068
534.737 534.341
534.69 538.779
534.643 526.572
534.596 527.984
534.548 502.17
534.501 493.001
534.454 497.443
534.407 520.024
534.36 545.619
534.312 528.892
534.265 525.77
534.218 533.223
534.171 519.529
534.123 526.98
534.076 534.428
534.029 523.76
533.982 490.46
533.934 532.613
533.887 497.816
533.84 512.803
533.793 518.737
533.745 505.069
533.698 538.135
533.651 498.848
533.604 471.631
533.556 522.763
533.509 483.501
533.462 542.14
533.415 502.89
533.367 516.342
533.32 475.607
533.273 504.107
533.226 469.407
533.178 512.94
533.131 479.756
533.084 524.773
533.037 551.734
532.989 502.027
532.942 489.909
532.895 494.323
532.848 449.162
532.8 525.675
532.753 497.043
532.706 508.959
532.659 498.354
532.611 490.755
532.564 498.164
532.517 504.07
532.47 511.473
532.422 484.382
532.375 481.291
532.328 497.688
532.281 485.603
532.233 501.994
532.186 498.901
532.139 492.814
532.091 483.734
532.044 512.091
531.997 488.04
531.95 502.915
531.902 492.343
531.855 487.761
531.808 495.147
531.761 486.078
531.713 506.92
531.666 479.912
531.619 503.737
531.572 530.541
531.524 488.602
531.477 487.015
531.43 466.011
531.382 473.388
531.335 479.27
531.288 480.671
531.241 485.056
531.193 473.026
531.146 492.33
531.099 466.878
531.051 501.09
531.004 492.047
530.957 469.592
530.91 466.521
530.862 475.373
530.815 479.751
530.768 470.722
530.72 487.014
530.673 467.563
530.626 507.67
530.579 471.849
530.531 470.271
530.484 513.33
530.437 474.553
530.389 446.203
530.342 468.423
530.295 474.28
530.248 453.379
530.2 485.988
530.153 493.325
530.106 472.431
530.058 456.002
530.011 461.854
529.964 470.675
529.917 455.0005
529.869 439.326
529.822 467.436
529.775 453.993
529.727 489.507
529.68 452.336
529.633 474.491
529.585 461.057
529.538 450.593
529.491 447.543
529.444 460.792
529.396 476.998
529.349 491.718
529.302 456.084
529.254 441.191
529.207 455.909
529.16 457.301
529.112 469.051
529.065 427.538
529.018 443.726
528.971 476.174
528.923 461.298
528.876 453.818
528.829 499.547
528.781 422.612
528.734 471.285
528.687 453.469
528.639 465.196
528.592 440.006
528.545 491.59
528.497 466.404
528.45 463.363
528.403 423.438
528.355 429.257
528.308 438.024
528.261 409.923
528.214 445.226
528.166 465.776
528.119 489.266
528.072 419.921
528.024 464.034
527.977 472.782
527.93 418.206
527.882 437.265
527.835 453.373
527.788 415.021
527.74 473.798
527.693 472.236
527.646 450.082
527.598 454.407
527.551 441.087
527.504 435.122
527.456 446.796
527.409 464.343
527.362 458.377
527.314 412.754
527.267 442.046
527.22 436.088
527.172 431.6
527.125 446.194
527.078 441.705
527.03 437.219
526.983 429.8
526.936 434.117
526.888 423.769
526.841 450.076
526.794 428.003
526.746 420.593
526.699 460.072
526.652 421.895
526.604 439.39
526.557 421.733
526.51 458.253
526.462 437.671
526.415 437.587
526.368 433.113
526.32 471.066
526.273 405.155
526.226 399.2285
526.178 393.302
526.131 451.698
526.084 423.842
526.036 425.222
525.989 414.913
525.942 429.439
525.894 417.673
525.847 435.114
525.799 420.432
525.752 415.972
525.705 418.81
525.657 436.237
525.61 421.565
525.563 425.859
525.515 419.944
525.468 406.742
525.421 412.494
525.373 418.244
525.326 435.647
525.279 402.058
525.231 404.893
525.184 381.52049999999997
525.137 358.148
525.089 411.936
525.042 416.222
524.994 430.692
524.947 405.878
524.9 394.164
524.852 415.9
524.805 412.912
524.758 404.11
524.71 406.939
524.663 412.672
524.616 425.667
524.568 399.44
524.521 390.649
524.473 415.257
524.426 418.079
524.379 415.096
524.331 375.836
524.284 410.583
524.237 407.602
524.189 413.324
524.142 423.394
524.094 366.773
524.047 408.735
524.0 402.86
523.952 412.924
523.905 411.395
523.858 398.281
523.81 403.995
523.763 438.663
523.715 387.917
523.668 428.362
523.621 384.873
523.573 397.817
523.526 386.17
523.479 400.555
523.431 407.706
523.384 401.845
523.336 382.98
523.289 400.245
523.242 391.499
523.194 381.312
523.147 402.9
523.1 401.378
523.052 389.752
523.005 404.108
522.957 346.311
522.91 399.623
522.863 353.389
522.815 380.721
522.768 396.507
522.72 369.04
522.673 412.207
522.626 366.015
522.578 383.232
522.531 407.646
522.483 374.443
522.436 378.689
522.389 395.891
522.341 387.178
522.294 389.981
522.247 361.13
522.199 371.129
522.152 388.315
522.104 386.802
522.057 379.539
522.01 388.089
521.962 362.8695
521.915 337.65
521.867 379.243
521.82 392.096
521.773 380.532
521.725 370.408
521.678 399.044
521.63 381.745
521.583 360.148
521.535 352.905
521.488 378.653
521.441 362.806
521.393 372.771
521.346 346.896
521.298 381.225
521.251 384.017
521.204 353.857
521.156 378.138
521.109 360.879
521.061 380.854
521.014 375.054
520.967 354.944
520.919 354.874
520.872 381.988
520.824 361.888
520.777 341.796
520.73 370.326
520.682 354.529
520.635 338.738
520.587 364.394
520.54 384.324
520.492 385.678
520.445 371.321
520.398 356.97
520.35 361.183
520.303 363.967
520.255 376.74
520.208 372.386
520.16 349.49
520.113 350.848
520.066 352.205
520.018 347.859
519.971 342.09
519.923 344.873
519.876 351.93
519.829 356.135
519.781 350.369
519.734 368.812
519.686 337.418
519.639 323.118
519.591 357.211
519.544 347.181
519.497 348.536
519.449 368.38
519.402 369.73
519.354 345.488
519.307 351.106
519.259 351.038
519.212 362.337
519.164 349.48
519.117 345.15
519.07 340.823
519.022 349.275
518.975 369.08
518.927 356.235
518.88 316.434
518.832 346.165
518.785 381.558
518.738 327.593
518.69 350.215
518.643 327.465
518.595 321.732
518.548 318.835
518.5 330.106
518.453 328.625
518.405 329.977
518.358 373.807
518.311 351.083
518.263 312.799
518.216 338.21
518.168 345.218
518.121 335.248
518.073 312.554
518.026 322.391
517.978 312.432
517.931 336.399
517.883 344.812
517.836 354.635
517.789 331.964
517.741 331.899
517.694 333.246
517.646 330.357
517.599 314.063
517.551 297.769
517.504 337.217
517.456 325.866
517.409 334.264
517.361 334.199
517.314 311.576
517.267 312.924
517.219 314.272
517.172 319.847
517.124 326.827
517.077 332.397
517.029 297.127
516.982 319.596
516.934 278.712
516.887 318.063
516.839 322.222
516.792 319.345
516.744 323.502
516.697 331.876
516.65 313.533
516.602 303.632
516.555 307.788
516.507 328.805
516.46 307.667
516.412 331.485
516.365 303.334
516.317 334.163
516.27 306.022
516.222 319.997
516.175 296.079
516.127 317.065
516.08 339.446
516.032 290.295
515.985 321.085
515.937 323.825
515.89 295.73
515.842 329.303
515.795 287.208
515.748 331.975
515.7 285.695
515.653 316.443
515.605 299.581
515.558 299.522
515.51 320.454
515.463 284.015
515.415 292.352
515.368 292.294
515.32 283.847
515.273 274.005
515.225 307.496
515.178 296.256
515.13 308.773
515.083 305.918
515.035 319.824
514.988 297.42
514.94 304.341
514.893 298.698
514.845 309.804
514.798 299.976
514.75 313.866
514.703 274.753
514.655 312.348
514.608 295.557
514.56 288.53
514.513 280.111
514.465 306.529
514.418 288.359
514.37 286.91
514.323 302.17
514.275 272.874
514.228 296.484
514.18 264.417
514.133 306.106
514.085 297.699
514.038 282.341
513.99 315.659
513.943 297.523
513.895 279.394
513.848 294.626
513.8 270.947
513.753 304.235
513.705 304.175
513.658 291.617
513.61 304.055
513.563 288.725
513.515 287.281
513.468 296.937
513.42 288.554
513.373 269.7765
513.325 250.999
513.278 273.133
513.23 277.237
513.183 261.937
513.135 271.585
513.088 279.844
513.04 303.335
512.993 263.115
512.945 281.062
512.898 292.081
512.85 292.023
512.803 290.582
512.755 297.442
512.708 296.0
512.66 289.027
512.613 282.056
512.565 261.265
512.518 259.832
512.47 277.744
512.423 277.689
512.375 261.059
512.328 281.722
512.28 285.808
512.232 269.187
512.185 253.951
512.137 291.158
512.09 309.036
512.042 285.526
511.995 293.744
511.947 253.7
511.9 281.221
511.852 261.869
511.805 264.573
511.757 270.032
511.71 274.111
511.662 268.548
511.615 279.51
511.567 267.065
511.52 280.776
511.472 262.831
511.425 268.282
511.377 262.727
511.329 283.304
511.282 301.122
511.234 273.568
511.187 274.889
511.139 270.712
511.092 263.788
511.044 262.362
510.997 258.19
510.949 255.393
510.902 251.911
510.854 248.429
510.807 242.891
510.759 267.538
510.711 255.14
510.664 278.404
510.616 279.72
510.569 268.697
510.521 270.014
510.474 271.331
510.426 261.687
510.379 272.593
510.331 250.627
510.284 264.27
510.236 246.42
510.188 242.265
510.141 244.954
510.093 254.482
510.046 270.847
509.998 274.896
509.951 251.596
509.903 319.901
509.856 247.396
509.808 228.215
509.761 278.722
509.713 260.908
509.665 241.736
509.618 267.632
509.57 263.483
509.523 252.511
509.475 266.108
509.428 240.132
509.38 268.73
509.333 255.038
509.285 239.988
509.237 244.031
509.19 269.88
509.142 256.198
509.095 260.235
509.047 252.01
509.0 264.217
508.952 249.186
508.904 255.944
508.857 259.976
508.809 253.12
508.762 242.185
508.714 244.857
508.667 288.33
508.619 297.791
508.572 258.306
508.524 248.0625
508.476 237.819
508.429 245.924
508.381 248.592
508.334 259.407
508.286 263.429
508.239 232.152
508.191 245.679
508.143 245.63
508.096 242.867
508.048 233.323
508.001 260.402
507.953 238.654
507.906 256.231
507.858 235.848
507.81 243.932
507.763 243.884
507.715 227.579
507.668 250.558
507.62 247.8
507.573 261.289
507.525 232.812
507.477 238.179
507.43 231.366
507.382 248.906
507.335 240.741
507.287 259.624
507.239 252.812
507.192 229.784
507.144 266.225
507.097 226.99
507.049 244.505
507.002 233.654
506.954 222.803
506.906 232.209
506.859 248.36
506.811 226.718
506.764 226.672
506.716 256.305
506.668 227.931
506.621 238.673
506.573 227.84
506.526 253.404
506.478 218.315
506.43 247.913
506.383 226.31
506.335 251.855
506.288 235.646
506.24 232.906
506.192 230.167
506.145 222.047
506.097 242.185
506.05 234.065
506.002 232.673
505.954 219.18
505.907 239.302
505.859 211.028
505.812 240.55
505.764 223.036
505.716 235.081
505.669 240.406
505.621 206.788
505.574 237.625
505.526 228.181
505.478 253.633
505.431 221.381
505.383 245.483
505.336 221.293
505.288 261.475
505.24 219.864
505.193 198.374
505.145 245.237
505.098 223.751
505.05 219.687
505.002 231.697
504.955 223.616
504.907 235.62
504.86 222.188
504.812 228.835
504.764 218.085
504.717 200.652
504.669 220.673
504.622 213.943
504.574 232.616
504.526 200.491
504.479 237.868
504.431 236.484
504.383 221.743
504.336 211.014
504.288 221.654
504.241 226.95
504.193 220.231
504.145 250.879
504.098 241.489
504.05 220.098
504.002 214.719
503.955 217.343
503.907 237.296
503.86 225.253
503.812 233.203
503.764 219.833
503.717 241.102
503.669 229.067
503.621 213.7115
503.574 198.356
503.526 204.971
503.479 206.261
503.431 206.219
503.383 220.81
503.336 204.807
503.288 190.139
503.24 203.395
503.193 224.62
503.145 217.93
503.098 225.858
503.05 216.515
503.002 200.534
502.955 216.427
502.907 223.021
502.859 199.086
502.812 234.875
502.764 217.58
502.716 206.925
502.669 218.819
502.621 198.886
502.574 222.708
502.526 213.385
502.478 206.717
502.431 204.025
502.383 211.932
502.335 215.862
502.288 194.634
502.24 199.89
502.192 202.496
502.145 189.223
502.097 205.061
502.05 202.374
502.002 218.203
501.954 204.937
501.907 219.437
501.859 211.463
501.811 202.17
501.764 190.24
501.716 221.901
501.668 215.254
501.621 195.406
501.573 215.167
501.525 205.885
501.478 193.968
501.43 208.441
501.382 207.08
501.335 197.807
501.287 203.041
501.239 228.045
501.192 210.866
501.144 183.153
501.097 218.686
501.049 198.885
501.001 206.746
500.954 175.106
500.906 198.764
500.858 213.201
500.811 185.526
500.763 199.959
500.715 203.865
500.668 224.863
500.62 198.524
500.572 211.628
500.525 198.443
500.477 201.031
500.429 218.068
500.382 182.562
500.334 182.525
500.286 202.182
500.239 185.077
500.191 182.4155
500.143 179.754
500.096 183.653
500.048 199.354
500.0 207.182
499.953 201.896
499.905 193.99
499.857 195.262
499.81 184.74
499.762 176.843
499.714 195.143
499.667 179.39350000000002
499.619 163.644
499.571 184.553
499.524 202.837
499.476 176.629
499.428 193.598
499.381 205.329
499.333 196.135
499.285 192.173
499.238 197.362
499.19 196.016
499.142 186.831
499.094 189.405
499.047 190.673
498.999 206.303
498.951 195.817
498.904 181.421
498.856 197.043
498.808 195.698
498.761 204.789
498.713 172.145
498.665 182.541
498.618 187.718
498.57 178.557
498.522 190.248
498.475 182.393
498.427 200.591
498.379 165.389
498.332 178.373
498.284 191.357
498.236 180.906
498.188 189.978
498.141 178.231
498.093 170.391
498.045 193.764
497.998 206.726
497.95 188.486
497.902 178.05
497.855 188.409
497.807 179.279
497.759 170.149
497.712 184.399
497.664 172.676
497.616 180.43
497.568 175.202
497.521 176.464
497.473 189.4
497.425 197.144
497.378 172.466
497.33 167.245
497.282 193.135
497.235 176.249
497.187 186.578
497.139 174.882
497.091 185.207
497.044 173.516
496.996 154.061
496.948 174.739
496.901 160.469
496.853 188.901
496.805 177.22
496.758 192.704
496.71 177.148
496.662 195.211
496.614 195.171
496.567 187.378
496.519 167.96
496.471 178.259
496.424 175.64
496.376 187.225
496.328 174.9255
496.28 162.626
496.233 176.788
496.185 180.622
496.137 192.194
496.09 175.39
496.042 168.908
495.994 172.74
495.946 163.683
495.899 181.69
495.851 179.076
495.803 164.871
495.756 204.759
495.708 187.98
495.66 180.218
495.612 171.172
495.565 177.571
495.517 168.529
495.469 164.636
495.422 169.747
495.374 168.426
495.326 174.819
495.278 168.358
495.231 169.608
495.183 173.427
495.135 170.823
495.088 177.209
495.04 159.84449999999998
494.992 142.48
494.944 164.267
494.897 157.818
494.849 153.938
494.801 175.71
494.753 189.779
494.706 170.51
494.658 169.193
494.61 171.722
494.563 167.843
494.515 175.494
494.467 162.651
494.419 166.46
494.372 185.628
494.324 172.791
494.276 184.273
494.228 166.96699999999998
494.181 149.661
494.133 166.256
494.085 179.008
494.037 161.074
493.99 180.213
493.942 190.399
493.894 181.417
493.847 169.886
493.799 158.355
493.751 164.707
493.703 158.291
493.656 151.877
493.608 153.12150000000003
493.56 154.366
493.512 155.61
493.465 168.331
493.417 155.546
493.369 175.91
493.321 174.599
493.274 173.29
493.226 161.789
493.178 171.945
493.13 169.363
493.083 152.777
493.035 152.746
492.987 167.986
492.939 151.411
492.892 170.462
492.844 156.436
492.796 165.305
492.748 177.985
492.701 148.714
492.653 153.767
492.605 161.358
492.557 166.406
492.51 173.992
492.462 172.687
492.414 145.992
492.366 167.539
492.319 157.353
492.271 161.127
492.223 148.412
492.175 135.697
492.128 143.909
492.08 152.121
492.032 168.566
491.984 167.264
491.937 145.693
491.889 160.863
491.841 182.358
491.793 168.393
491.746 169.625
491.698 146.809
491.65 154.371
491.602 139.158
491.554 156.837
491.507 165.657
491.459 183.323
491.411 160.533
491.363 160.5
491.316 162.994
491.268 155.381
491.22 155.349
491.172 156.58
491.125 150.235
491.077 152.728
491.029 179.198
490.981 160.236
490.933 158.942
490.886 166.476
490.838 157.615
490.79 153.1715
490.742 148.728
490.695 163.819
490.647 147.407
490.599 154.934
490.551 158.68
490.504 163.684
490.456 146.026
490.408 152.289
490.36 159.808
490.312 157.259
490.265 149.68
490.217 164.739
490.169 150.875
490.121 143.302
490.074 142.016
490.026 154.552
489.978 153.264
489.93 159.512
489.882 146.922
489.835 144.38
489.787 161.924
489.739 165.655
489.691 144.291
489.643 139.244
489.596 149.249
489.548 164.265
489.5 155.455
489.452 147.903
489.405 151.632
489.357 143.45850000000002
489.309 135.285
489.261 140.2655
489.213 145.246
489.166 162.742
489.118 136.425
489.07 153.916
489.022 136.3725
488.974 118.829
488.927 130.06
488.879 145.036
488.831 150.007
488.783 138.728
488.735 159.941
488.688 147.415
488.64 137.393
488.592 136.116
488.544 149.821
488.496 154.783
488.449 138.527
488.401 138.499
488.353 152.192
488.305 155.902
488.257 152.129
488.21 142.124
488.162 143.341
488.114 155.774
488.066 139.544
488.018 149.481
487.971 138.241
487.923 141.948
487.875 148.143
487.827 150.602
487.779 149.326
487.732 151.784
487.684 146.777
487.636 135.554
487.588 140.499
487.54 162.846
487.493 147.898
487.445 155.323
487.397 140.383
487.349 161.469
487.301 125.423
487.254 139.054
487.206 143.991
487.158 140.238
487.11 136.486
487.062 151.344
487.015 143.871
486.967 147.562
486.919 135.134
486.871 128.908
486.823 143.752
486.775 158.59
486.728 136.26
486.68 147.378
486.632 146.11
486.584 172.076
486.536 143.574
486.489 124.982
486.441 127.431
486.393 138.537
486.345 148.401
486.297 126.115
486.249 137.214
486.202 133.478
486.154 135.922
486.106 153.189
486.058 139.571
486.01 150.656
485.962 136.42950000000002
485.915 122.203
485.867 140.689
485.819 118.45
485.771 133.229
485.723 136.901
485.676 144.271
485.628 119.585
485.58 141.746
485.532 136.788
485.484 147.848
485.436 157.672
485.389 136.707
485.341 115.742
485.293 121.25425
485.245 126.76650000000001
485.197 132.27875
485.149 137.791
485.102 120.542
485.054 134.044
485.006 141.393
484.958 137.676
484.91 133.96
484.862 127.789
484.815 130.219
484.767 126.508
484.719 151.041
484.671 133.821
484.623 132.566
484.575 132.538
484.528 130.057
484.48 131.256
484.432 127.55
484.384 120.166
484.336 133.626
484.288 134.824
484.24 120.091
484.193 133.543
484.145 129.84
484.097 127.364
484.049 142.03
484.001 111.397
483.953 115.04325
483.906 118.68950000000001
483.858 122.33575
483.81 125.982
483.762 139.407
483.714 133.265
483.666 136.904
483.618 139.32
483.571 128.294
483.523 141.705
483.475 136.79
483.427 139.204
483.379 137.954
483.331 117.175
483.283 142.778
483.236 128.107
483.188 143.938
483.14 135.371
483.092 136.562
483.044 107.276
482.996 117.004
482.948 126.728
482.901 134.012
482.853 120.588
482.805 107.164
482.757 117.4885
482.709 127.813
482.661 125.353
482.613 125.326
482.566 124.084
482.518 136.22
482.47 138.624
482.422 121.574
482.374 121.549
482.326 127.6
482.278 121.498
482.231 131.191
482.183 133.592
482.135 118.994
482.087 122.611
482.039 135.936
481.991 129.84
481.943 123.747
481.896 120.082
481.848 126.121
481.8 129.732
481.752 124.856
481.704 119.983
481.656 115.11
481.608 117.509
481.56 112.6405
481.513 107.772
481.465 122.278
481.417 133.146
481.369 118.596
481.321 119.781
481.273 124.595
481.225 133.034
481.177 128.17
481.13 130.561
481.082 122.073
481.034 128.089
480.986 122.022
480.938 112.333
480.89 119.555
480.842 127.982
480.794 126.748
480.747 127.928
480.699 112.216
480.651 126.668
480.603 125.436
480.555 122.998
480.507 121.766
480.459 119.33
480.411 121.715
480.363 114.461
480.316 120.46
480.268 115.617
480.22 128.838
480.172 119.18
480.124 125.173
480.076 134.773
480.028 111.886
479.98 120.283
479.932 111.839
479.885 117.828
479.837 111.792
479.789 121.384
479.741 127.366
479.693 116.527
479.645 112.9
479.597 115.278
479.549 121.256
479.501 127.232
479.454 112.805
479.406 121.18
479.358 116.356
479.31 119.929
479.262 123.501
479.214 127.072
479.166 116.258
479.118 125.82
479.07 112.615
479.023 119.778
478.975 116.16
478.927 112.544
478.879 107.732
478.831 126.858
478.783 117.259
478.735 119.627
478.687 126.778
478.639 110.011
478.591 107.59700000000001
478.544 105.183
478.496 118.306
478.448 115.892
478.4 120.646
478.352 109.872
478.304 117.013
478.256 109.826
478.208 120.544
478.16 112.166
478.112 121.686
478.064 115.697
478.017 115.672
477.969 123.994
477.921 101.32
477.873 108.449
477.825 116.766
477.777 113.168
477.729 114.335
477.681 121.456
477.633 119.049
477.585 108.312
477.537 105.909
477.49 107.076
477.442 113.001
477.394 101.085
477.346 96.9031
477.298 92.7212
477.25 99.2371
477.202 105.753
477.154 109.294
477.106 114.022
477.058 109.248
477.01 123.472
476.962 127.007
476.915 113.3355
476.867 99.664
476.819 111.505
476.771 113.854
476.723 98.4152
476.675 114.991
476.627 97.1884
476.579 99.5378
476.531 104.256
476.483 111.34
476.435 100.659
476.387 97.0857
476.339 111.27
476.292 99.4116
476.244 118.322
476.196 107.65
476.148 112.359
476.1 100.51
476.052 92.2132
476.004 102.831
475.956 99.2645
475.908 105.14975
475.86 111.035
475.812 106.287
475.764 108.626
475.716 109.784
475.668 107.4
475.621 115.637
475.573 125.05
475.525 109.691
475.477 104.36234999999999
475.429 99.0337
475.381 104.31585
475.333 109.598
475.285 102.505
475.237 103.662
475.189 96.57505
475.141 89.4881
475.093 94.76555
475.045 100.043
474.997 111.789
474.949 103.53
474.901 117.623
474.854 109.366
474.806 98.7612
474.758 103.442
474.71 102.245
474.662 99.8734
474.614 96.328
474.566 103.354
474.518 109.204
474.47 102.137
474.422 93.8988
474.374 111.481
474.326 113.804
474.278 95.0121
474.23 121.965
474.182 106.697
474.134 112.535
474.086 98.4474
474.038 114.831
473.99 114.807
473.943 98.3847
473.895 96.0218
473.847 100.684
473.799 108.857
473.751 112.344
473.703 111.15
473.655 100.0162
473.607 88.8824
473.559 94.7087
473.511 100.535
473.463 109.863
473.415 106.335
473.367 98.1341
473.319 99.2813
473.271 114.441
473.223 103.909
473.175 99.2179
473.127 102.698
473.079 107.343
473.031 114.319
472.983 111.963
472.935 106.109
472.888 107.252
472.84 107.229
472.792 115.363
472.744 104.853
472.696 109.49
472.648 107.138
472.6 107.115
472.552 96.6157
472.504 96.5951
472.456 98.9016
472.408 105.86
472.36 111.653
472.312 103.49135000000001
472.264 95.3297
472.216 100.53885
472.168 105.748
472.12 109.211
472.072 111.51
472.024 88.2603
471.976 94.0442
471.928 99.82809999999999
471.88 105.612
471.832 97.4677
471.784 96.2868
471.736 103.225
471.688 98.5649
471.64 92.7472
471.592 90.4092
471.544 96.1841
471.496 96.1636
471.448 106.568
471.401 98.4388
471.353 90.3128
471.305 109.973
471.257 101.848
471.209 87.9407
471.161 89.0788
471.113 100.626
471.065 111.012
471.017 102.895
470.969 100.562
470.921 92.4506
470.873 107.451
470.825 97.0317
470.777 84.3071
470.729 96.9902
470.681 96.9695
470.633 108.49
470.585 106.159
470.537 93.4463
470.489 109.574
470.441 99.1722
470.393 106.069
470.345 108.351
470.297 95.6513
470.249 99.0874
470.201 97.9143
470.153 97.8933
470.105 92.69200000000001
470.057 87.4907
470.009 88.62265
469.961 89.7546
469.913 103.541
469.865 104.669
469.817 98.8967
469.769 102.325
469.721 104.602
469.673 99.9824
469.625 110.302
469.577 99.9396
469.529 102.215
469.481 93.0074
469.433 106.763
469.385 82.6378
469.337 89.5051
469.289 97.5167
469.241 100.937
469.193 95.1814
469.145 97.454
469.097 92.276
469.049 87.098
469.001 103.12
468.953 89.3517
468.905 89.3325
468.857 92.7485
468.809 84.715
468.761 99.576
468.713 101.843
468.665 100.677
468.617 90.3614
468.569 86.9113
468.521 97.1826
468.473 92.5894
468.425 103.998
468.377 94.8348
468.329 102.811
468.281 85.6573
468.233 90.2063
468.185 97.0366
468.137 92.4503
468.089 95.8538
468.041 94.6924
467.993 92.3908
467.945 95.792
467.897 82.0898
467.849 98.0307
467.801 98.0096
467.753 105.964
467.705 112.776
467.657 101.93465
467.609 91.0933
467.561 99.0427
467.513 95.6069
467.465 105.828
467.417 98.9788
467.369 101.232
467.321 111.445
467.273 98.9149
467.225 100.03
467.177 97.7359
467.129 94.3062
467.081 94.2859
467.033 99.9443
466.985 97.6518
466.937 98.766
466.889 91.36885000000001
466.841 83.9717
466.793 98.7022
466.745 91.8754
466.697 105.464
466.649 97.5047
466.601 103.151
466.553 99.7292
466.505 103.107
466.457 99.6863
466.409 97.3997
466.36 88.8882
466.312 80.3767
466.264 83.7541
466.216 87.1315
466.168 87.1127
466.12 87.0939
466.072 102.907
466.024 92.7094
465.976 83.6465
465.928 91.5393
465.88 108.468
465.832 93.759
465.784 83.5743
465.736 93.7186
465.688 97.085
465.64 99.3214
465.592 84.6306
465.544 86.8687
465.496 92.4895
465.448 94.7249
465.4 95.8319
465.352 89.0481
465.304 104.806
465.256 92.3897
465.208 109.267
465.16 91.2236
465.112 97.9597
465.064 90.0584
465.016 108.047
464.968 95.6457
464.92 95.625
464.872 94.4796
464.823 87.7121
464.775 96.6873
464.727 89.9222
464.679 98.893
464.631 86.5127
464.583 89.86314999999999
464.535 93.2136
464.487 98.8075
464.439 95.4184
464.391 95.3978
464.343 94.255
464.295 97.6002
464.247 107.673
464.199 99.24155
464.151 90.8101
464.103 99.7574
464.055 89.6502
464.007 90.7511
463.959 105.293
463.911 94.0715
463.863 95.1708
463.815 90.6725
463.766 94.0104
463.718 92.8711
463.67 97.3257
463.622 88.3571
463.574 110.702
463.526 97.2625
463.478 86.0642
463.43 103.925
463.382 87.1441
463.334 94.9442
463.286 83.7561
463.238 75.9224
463.19 84.836
463.142 99.3259
463.094 97.0728
463.046 101.514
462.998 91.4542
462.95 93.6645
462.902 90.2997
462.853 90.2801
462.805 99.1751
462.757 85.7846
462.709 93.5628
462.661 91.3153
462.613 92.4088
462.565 89.0494
462.517 90.143
462.469 89.0107
462.421 100.115
462.373 94.5328
462.325 95.6242
462.277 75.5934
462.229 77.98245
462.181 80.3715
462.133 82.76055
462.084 85.1496
462.036 87.53865
461.988 89.9277
461.94 92.1281
461.892 100.986
461.844 95.4165
461.796 87.631
461.748 85.3939
461.7 88.7016
461.652 82.0312
461.604 84.2299
461.556 80.8874
461.508 77.5471
461.46 74.2068
461.412 75.96084
461.363 77.71488000000001
461.315 79.46892
461.267 81.22296
461.219 82.977
461.171 83.51185000000001
461.123 84.0467
461.075 86.2397
461.027 105.013
460.979 100.569
460.931 99.4423
460.883 89.4785
460.835 88.35485
460.787 87.2312
460.738 89.42
460.69 101.541
460.642 91.588
460.594 97.0842
460.546 90.44655
460.498 83.8089
460.45 82.6881
460.402 89.2836
460.354 99.1824
460.306 102.466
460.258 79.3113
460.21 91.4084
460.162 89.1863
460.113 100.175
460.065 88.0468
460.017 91.3286
459.969 85.8081
459.921 90.1889
459.873 78.0733
459.825 78.0562
459.777 79.50406666666667
459.729 80.95193333333333
459.681 82.3998
459.633 87.8739
459.584 88.9529
459.536 99.9129
459.488 92.2071
459.44 87.7971
459.392 92.1668
459.344 99.8256
459.296 91.0298
459.248 97.5889
459.2 88.25135
459.152 78.9138
459.104 94.2375
459.055 78.8793
459.007 81.48848
458.959 84.09766
458.911 86.70684
458.863 89.31602000000001
458.815 91.9252
458.767 88.6228
458.719 92.9789
458.671 85.3031
458.623 88.5646
458.575 95.1041
458.526 83.0613
458.478 110.36
458.43 76.4703
458.382 91.7442
458.334 87.3563
458.286 91.7041
458.238 86.2266
458.19 79.6603
458.142 85.0978
458.094 80.7161
458.045 85.0605
457.997 91.5836
457.949 90.4734
457.901 92.6332
457.853 94.792
457.805 82.7887
457.757 80.5923
457.709 91.4631
457.661 84.91284999999999
457.612 78.3626
457.564 83.7861
457.516 87.0313
457.468 96.8011
457.42 91.3428
457.372 90.2356
457.324 95.6505
457.276 89.1093
457.228 92.3491
457.179 85.8115
457.131 94.4805
457.083 91.2025
457.035 85.755
456.987 93.333
456.939 79.2071
456.891 80.81655
456.843 82.426
456.795 83.49195
456.746 84.5579
456.698 87.7909
456.65 87.7716
456.602 93.1691
456.554 84.4836
456.506 95.2939
456.458 86.6118
456.41 89.84
456.362 88.738
456.313 82.2269
456.265 106.006
456.217 93.0053
456.169 83.2539
456.121 79.45295
456.073 75.652
456.025 86.4405
455.977 70.2174
455.928 79.9222
455.88 99.3409
455.832 84.2053
455.784 93.9006
455.736 94.959
455.688 85.76995
455.64 76.5809
455.592 88.4261
455.543 85.71185
455.495 82.9976
455.447 95.9112
455.399 92.6578
455.351 87.2515
455.303 87.2323
455.255 90.4432
455.207 88.2703
455.158 95.7844
455.11 83.9274
455.062 93.5907
455.014 90.3435
454.966 91.3989
454.918 81.7033
454.87 87.0593
454.822 95.6367
454.773 90.2439
454.725 91.2981
454.677 81.6132
454.629 97.6995
454.581 87.48304999999999
454.533 77.2666
454.485 76.1766
454.436 75.6236
454.388 75.0706
454.34 90.0648
454.292 95.4047
454.244 106.101
454.196 93.2196
454.148 87.8428
454.099 87.8233
454.051 86.7332
454.003 83.5024
453.955 82.4136
453.907 79.1859
453.859 75.9582
453.811 79.86153333333334
453.763 83.76486666666666
453.714 87.6682
453.666 80.1666
453.618 78.0115
453.57 90.8153
453.522 89.727
453.474 102.522
453.426 85.4165
453.377 91.8024
453.329 80.0425
453.281 88.5608
453.233 87.4744
453.185 81.0559
453.137 87.4357
453.088 73.5577
453.04 91.6603
452.992 90.5744
452.944 84.1623
452.896 78.8181
452.848 96.9035
452.8 74.5246
452.751 84.0877
452.703 83.0049
452.655 70.2194
452.607 81.37015
452.559 92.5209
452.511 96.7533
452.463 94.6058
452.414 92.4594
452.366 89.2513
452.318 87.107
452.27 97.7081
452.222 71.1412
452.174 75.3708
452.125 79.6004
452.077 93.377
452.029 94.4172
451.981 88.0324
451.933 86.9525
451.885 95.4145
451.837 89.0338
451.788 86.8946
451.74 88.9943
451.692 90.0337
451.644 85.7778
451.596 81.5237
451.548 81.5056
451.499 93.1286
451.451 84.6436
451.403 80.3935
451.355 87.7787
451.307 89.8739
451.259 101.482
451.21 93.0045
451.162 96.1538
451.114 79.23
451.066 83.437
451.018 81.30709999999999
450.97 79.1772
450.921 86.5478
450.873 81.2524
450.825 93.8942
450.777 87.5448
450.729 92.7979
450.681 88.5601
450.632 80.108
450.584 88.5207
450.536 83.2331
450.488 105.335
450.44 95.8334
450.392 87.3891
450.343 88.4223
450.295 83.6678
450.247 78.9133
450.199 88.3632
450.151 77.8264
450.103 88.3238
450.054 89.3554
450.006 101.948
449.958 88.2648
449.91 89.2957
449.862 87.1752
449.813 94.5062
449.765 79.7875
449.717 94.4641
449.669 87.0975
449.621 89.1763
449.573 93.352
449.524 82.8446
449.476 95.4073
449.428 85.9522
449.38 84.8851
449.332 79.6275
449.283 84.8472
449.235 91.1118
449.187 84.8093
449.139 93.1648
449.091 76.399
449.043 82.6599
448.994 84.7336
448.946 84.7147
448.898 79.4677
448.85 83.6315
448.802 82.5677
448.753 84.6391
448.705 80.4414
448.657 81.4679
448.609 83.5381
448.561 85.6074
448.513 88.7196
448.464 89.7433
448.416 81.3769
448.368 83.4448
448.32 91.7688
448.272 82.3649
448.223 89.643
448.175 83.3702
448.127 94.8124
448.079 81.2496
448.031 89.5628
447.982 88.5016
447.934 87.4408
447.886 78.0547
447.838 76.9967
447.79 75.9393
447.741 80.0824
447.693 82.144
447.645 74.8487
447.597 84.1859
447.549 85.2062
447.501 75.8373
447.452 74.7817
447.404 79.9569
447.356 85.1299
447.308 102.756
447.26 81.9786
447.211 84.0352
447.163 86.0908
447.115 78.8125
447.067 80.8684
447.019 82.9233
446.97 84.9774
446.922 82.8862
446.874 94.2619
446.826 81.8134
446.778 85.9365
446.729 94.1984
446.681 94.1773
446.633 82.7747
446.585 88.9628
446.536 80.6691
446.488 83.7529
446.44 99.2405
446.392 79.5813
446.344 82.6633
446.295 96.0745
446.247 81.5933
446.199 80.54265000000001
446.151 79.492
446.103 84.6348
446.054 79.97325000000001
446.006 75.3117
445.958 88.7035
445.91 80.4339
445.862 91.7565
445.813 89.6744
445.765 95.8373
445.717 85.513
445.669 95.7943
445.621 86.5044
445.572 100.899
445.524 91.6123
445.476 78.2131
445.428 93.6288
445.379 88.4645
445.331 96.672
445.283 79.1709
445.235 71.9574
445.187 84.274
445.138 80.14595
445.09 76.0179
445.042 86.2712
444.994 81.63215
444.946 76.9931
444.897 86.2129
444.849 96.4546
444.801 88.2258
444.753 95.3855
444.704 93.3132
444.656 89.1914
444.608 83.0216
444.56 94.2749
444.512 81.9597
444.463 76.82105
444.415 71.6824
444.367 73.712475
444.319 75.74255
444.27 77.772625
444.222 79.8027
444.174 90.0135
444.126 89.9932
444.078 104.287
444.029 72.5754
443.981 74.60155
443.933 76.6277
443.885 78.65385
443.836 80.68
443.788 75.5578
443.74 70.4356
443.692 73.224375
443.643 76.01315
443.595 78.801925
443.547 81.5907
443.499 82.5919
443.451 91.7481
443.402 85.6122
443.354 87.6308
443.306 93.7234
443.258 92.6837
443.209 97.7541
443.161 89.0806
443.113 80.4071
443.065 93.6175
443.016 98.6831
442.968 102.729
442.92 121.01
442.872 121.59140000000001
442.824 122.17280000000001
442.775 122.7542
442.727 123.3356
442.679 123.917
442.631 124.4984
442.582 125.0798
442.534 125.6612
442.486 126.2426
442.438 126.824
442.389 112.594
442.341 102.9366
442.293 93.2792
442.245 94.2718
442.196 96.2773
442.148 101.322
442.1 105.351
442.052 105.327
442.003 98.2152
441.955 104.267
441.907 95.64259999999999
441.859 87.0182
441.81 91.0449
441.762 94.0584
441.714 95.0483
441.666 100.081
441.617 96.0159
441.569 88.9209
441.521 99.003
441.473 90.9005
441.425 86.8408
441.376 91.8689
441.328 92.8573
441.28 92.8363
441.232 95.8418
441.183 94.8114
441.135 92.7731
441.087 87.7112
441.039 84.16425000000001
440.99 80.6173
440.942 95.7113
440.894 75.5444
440.845 85.5976
440.797 77.5237
440.749 91.5981
440.701 85.5393
440.652 93.5687
440.604 79.4651
440.556 76.43
440.508 85.4615
440.459 92.4785
440.411 77.3829
440.363 81.3843
440.315 77.34864999999999
440.266 73.313
440.218 81.3288
440.17 88.3371
440.122 84.3026
440.073 97.3273
440.025 70.2202
439.977 76.2218
439.929 97.2609
439.88 87.71755
439.832 78.1742
439.784 87.1745
439.736 83.1475
439.687 98.1518
439.639 80.1057
439.591 81.0885
439.543 71.0614
439.494 72.71220000000001
439.446 74.363
439.398 76.0138
439.349 96.9955
439.301 87.9779
439.253 78.9603
439.205 77.9431
439.156 82.9205
439.108 92.8898
439.06 89.8728
439.012 98.8376
438.963 92.8263
438.915 83.824
438.867 77.8188
438.819 84.7832
438.77 86.7583
438.722 79.76115
438.674 72.764
438.625 76.7335
438.577 90.6644
438.529 81.6789
438.481 79.6686
438.432 85.6242
438.384 79.6322
438.336 82.5996
438.288 79.5958
438.239 86.5407
438.191 88.5099
438.143 92.4668
438.094 80.5172
438.046 82.4864
437.998 77.4997
437.95 88.4089
437.901 86.4024
437.853 77.4465
437.805 88.3483
437.757 100.238
437.708 96.2457
437.66 86.3037
437.612 87.2758
437.563 96.1797
437.515 102.106
437.467 101.091
437.419 119.894
437.37 107.65446666666666
437.322 95.41493333333334
437.274 83.1754
437.225 90.086
437.177 90.0654
437.129 80.1498
437.081 83.0993
437.032 88.0255
436.984 84.05
436.936 100.837
436.887 81.0464
436.839 85.9686
436.791 86.9368
436.743 85.9292
436.694 79.9847
436.646 81.9409
436.598 85.8702
436.549 82.8901
436.501 89.7771
436.453 102.579
436.405 86.7776
436.356 90.7012
436.308 94.623
436.26 94.6013
436.211 95.5648
436.163 94.5579
436.115 90.5972
436.067 86.6384
436.018 80.22200000000001
435.97 73.8056
435.922 83.6272
435.873 93.4442
435.825 95.3896
435.777 92.4182
435.729 93.3799
435.68 80.5831
435.632 83.5121
435.584 84.4752
435.535 93.2942
435.487 91.3091
435.439 89.3249
435.39 88.323
435.342 89.2839
435.294 91.2252
435.246 84.3394
435.197 91.1833
435.149 94.103
435.101 84.2813
435.052 84.2619
435.004 89.1403
434.956 84.2231
434.907 96.9322
434.859 85.1633
434.811 90.037
434.763 82.1888
434.714 82.1699
434.666 89.4842
434.618 96.7985
434.569 101.664
434.521 88.9355
434.473 96.7317
434.424 91.8251
434.376 88.8741
434.328 86.41315
434.28 83.9522
434.231 83.9329
434.183 89.768
434.135 82.9187
434.086 92.6525
434.038 92.6311
433.99 83.8362
433.941 93.563
433.893 84.772
433.845 88.6491
433.796 84.7329
433.748 80.8185
433.7 93.4552
433.652 88.5674
433.603 83.6817
433.555 86.5809
433.507 94.3417
433.458 103.071
433.41 93.3281
433.362 83.5852
433.313 77.7358
433.265 93.2614
433.217 99.0674
433.168 83.5081
433.12 82.51825
433.072 81.5284
433.023 92.1834
432.975 93.1323
432.927 100.87
432.879 95.0286
432.83 82.4037
432.782 89.1693
432.734 96.9008
432.685 92.0345
432.637 96.856
432.589 95.8653
432.54 85.1939
432.492 95.821
432.444 86.1222
432.395 88.0371
432.347 89.9512
432.299 88.9634
432.25 101.511
432.202 89.8888
432.154 94.6996
432.105 92.7455
432.057 93.6899
432.009 91.737
431.96 88.8194
431.912 92.6597
431.864 93.6032
431.815 98.4054
431.767 101.276
431.719 103.181
431.671 88.6961
431.622 100.242
431.574 90.5823
431.526 79.0003
431.477 91.5036
431.429 86.6675
431.381 86.00586666666666
431.332 85.34423333333334
431.284 84.6826
431.236 83.7009
431.187 100.995
431.139 98.0866
431.091 87.4884
431.042 95.1576
430.994 99.9403
430.946 93.192
430.897 88.3678
430.849 85.46705
430.801 82.5663
430.752 92.1457
430.704 87.3261
430.656 97.8593
430.607 97.8366
430.559 100.691
430.511 96.8324
430.462 98.727
430.414 108.287
430.366 91.9747
430.317 93.869
430.269 96.7201
430.221 102.442
430.172 92.8464
430.124 91.38974999999999
430.076 89.9331
430.027 92.7817
429.979 100.41
429.931 93.6946
429.882 94.6287
429.834 92.6954
429.786 91.7185
429.737 106.025
429.689 95.4957
429.64 89.745
429.592 104.042
429.544 100.2
429.495 94.4528
429.447 90.6154
429.399 102.038
429.35 106.781
429.302 101.037
429.254 121.979
429.205 105.754
429.157 109.539
429.109 108.5615
429.06 107.584
429.012 94.2331
428.964 95.1628
428.915 97.0434
428.867 101.777
428.819 98.9001
428.77 105.532
428.722 94.1014
428.674 91.22925000000001
428.625 88.3571
428.577 101.634
428.529 85.467
428.48 92.0929
428.432 105.36
428.383 101.54
428.335 106.26
428.287 102.441
428.238 111.9
428.19 98.6007
428.142 103.317
428.093 95.7118
428.045 108.953
427.997 89.0367
427.948 98.4857
427.9 85.2081
427.852 93.23205
427.803 101.256
427.755 98.3937
427.707 95.5331
427.658 105.913
427.61 90.7613
427.561 90.7401
427.513 102.059
427.465 101.09
427.416 98.2329
427.368 92.544
427.32 103.852
427.271 93.4446
427.223 103.803
427.175 99.0616
427.126 100.925
427.078 102.787
427.03 101.82
426.981 101.797
426.933 109.311
426.884 100.807
426.836 104.551
426.788 100.76
426.739 113.916
426.691 94.1238
426.643 99.7464
426.594 105.369
426.546 90.2954
426.498 97.3252
426.449 104.355
426.401 106.211
426.352 102.427
426.304 101.463
426.256 106.136
426.207 123.953
426.159 102.331
426.111 113.57
426.062 96.6527
426.014 102.259
425.965 118.18
425.917 107.837
425.869 99.3745
425.82 119.034
425.772 115.258
425.724 104.926
425.675 114.267
425.627 117.05
425.579 98.2985
425.53 106.699
425.482 109.481
425.433 101.036
425.385 98.2063
425.337 123.43
425.288 117.792
425.24 114.961
425.192 120.54
425.143 107.433
425.095 105.54
425.046 116.72
424.998 111.091
424.95 105.465
424.901 123.17
424.853 113.812
424.805 115.65
424.756 105.366
424.708 110.935
424.659 113.705
424.611 104.36
424.563 108.993
424.514 95.929
424.466 102.424
424.418 104.262
424.369 113.544
424.321 103.282
424.272 114.421
424.224 117.184
424.176 117.157
424.127 128.284
424.079 117.102
424.03 125.437
423.982 113.331
423.934 114.233
423.885 112.349
423.837 118.82
423.789 111.368
423.74 120.62
423.692 103.894
423.643 111.287
423.595 118.68
423.547 121.433
423.498 119.551
423.45 119.523
423.401 121.348
423.353 131.506
423.305 122.216
423.256 115.708
423.208 124.009
423.159 128.606
423.111 111.001
423.063 119.298
423.014 114.647
422.966 121.09
422.918 116.441
422.869 108.098
422.821 112.691
422.772 115.435
422.724 131.103
422.676 114.457
422.627 107.048
422.579 116.248
422.53 120.833
422.482 116.194
422.434 123.542
422.385 115.217
422.337 120.719
422.288 130.825
422.24 124.346
422.192 123.396
422.143 122.446
422.095 119.656
422.046 131.59
421.998 107.639
421.95 127.849
421.901 129.658
421.853 134.224
421.804 119.486
421.756 124.052
421.708 132.291
421.659 123.993
421.611 127.637
421.562 127.607
421.514 131.248
421.466 127.546
421.417 125.681
421.369 124.735
421.32 124.705
421.272 123.759
421.224 135.644
421.175 135.612
421.127 127.335
421.078 138.295
421.03 130.022
420.982 121.752
420.933 133.621
420.885 133.589
420.836 127.154
420.788 140.842
420.74 143.552
420.691 136.205
420.643 132.517
420.594 138.881
420.546 139.762
420.498 136.076
420.449 140.609
420.401 137.837
420.352 136.891
420.304 138.684
420.255 143.212
420.207 153.209
420.159 135.85
420.11 139.463
420.062 131.229
420.013 135.753
419.965 140.275
419.917 144.795
419.868 150.223
419.82 131.983
419.771 140.142
419.723 142.838
419.675 142.804
419.626 149.135
419.578 148.191
419.529 139.975
419.481 150.846
419.432 148.993
419.384 143.508
419.336 144.382
419.287 148.887
419.239 145.221
419.19 142.464
419.142 146.966
419.094 151.466
419.045 150.524
418.997 140.516
418.948 137.763
418.9 153.134
418.851 154.004
418.803 153.967
418.755 170.229
418.706 155.704
418.658 131.231
418.609 158.345
418.561 156.498
418.512 146.512
418.464 159.135
418.416 151.866
418.367 156.348
418.319 150.89
418.27 158.08
418.222 156.237
418.174 157.102
418.125 162.481
418.077 172.369
418.028 147.065
417.98 162.364
417.931 158.718
417.883 157.779
417.835 154.136
417.786 146.89
417.738 162.171
417.689 168.437
417.641 163.894
417.592 157.553
417.544 176.417
417.496 172.775
417.447 168.236
417.399 176.291
417.35 159.163
417.302 177.105
417.253 184.253
417.205 168.035
417.157 167.995
417.108 173.344
417.06 166.119
417.011 172.363
416.963 185.784
416.914 174.972
416.866 182.107
416.817 175.785
416.769 186.503
416.721 188.251
416.672 177.452
416.624 174.721
416.575 184.533
416.527 169.264
416.478 185.34
416.43 193.352
416.382 183.461
416.333 181.628
416.285 182.479
416.236 177.964
416.188 183.286
416.139 185.923
416.091 174.261
416.042 191.195
415.994 182.217
415.946 193.782
415.897 167.845
415.849 179.408
415.8 169.549
415.752 199.841
415.703 181.955
415.655 214.013
415.607 192.565
415.558 190.737
415.51 192.473
415.461 186.191
415.413 195.943
415.364 204.801
415.316 212.763
415.267 198.472
415.219 185.967
415.171 202.825
415.122 192.104
415.074 200.06
415.025 205.345
414.977 189.299
414.928 209.689
414.88 208.751
414.831 197.155
414.783 214.865
414.734 215.701
414.686 199.676
414.638 212.049
414.589 211.998
414.541 208.4
414.492 214.556
414.444 221.595
414.395 208.249
414.347 209.971
414.298 209.035
414.25 202.786
414.202 208.049
414.153 215.079
414.105 226.531
414.056 225.592
414.008 214.04
413.959 208.683
413.911 224.545
413.862 224.491
413.814 218.252
413.765 214.665
413.717 233.161
413.669 223.392
413.62 218.041
413.572 245.348
413.523 372.344
413.475 344.23
413.426 316.116
413.378 288.002
413.329 259.88800000000003
413.281 231.774
413.232 229.075
413.184 234.304
413.135 236.009
413.087 243.876
413.039 249.979
412.99 236.718
412.942 238.421
412.893 243.641
412.845 243.582
412.796 244.402
412.748 238.191
412.699 246.92
412.651 239.833
412.602 258.219
412.554 228.302
412.505 247.56
412.457 279.973
412.409 251.827
412.36 237.2955
412.312 222.764
412.263 254.275
412.215 248.954
412.166 236.624
412.118 257.595
412.069 249.649
412.021 248.713
411.972 238.147
411.924 252.969
411.875 252.033
411.827 258.971
411.778 247.538
411.73 262.344
411.682 258.783
411.633 248.232
411.585 264.775
411.536 263.837
411.488 272.507
411.439 257.597
411.391 269.756
411.342 268.818
411.294 257.41
411.245 267.816
411.197 285.194
411.148 287.741
411.1 276.338
411.051 271.042
411.003 285.789
410.954 264.813
410.906 269.974
410.857 284.71
410.809 299.439
410.761 283.702
410.712 302.774
410.664 278.345
410.615 291.322
410.567 286.035
410.518 297.265
410.47 292.848
410.421 293.645
410.373 301.391
410.324 294.371
410.276 328.157
410.227 304.643
410.179 283.744
410.13 297.555
410.082 316.563
410.033 300.879
409.985 299.072
409.936 311.999
409.888 317.989
409.839 308.383
409.791 300.513
409.742 313.428
409.694 296.905
409.646 295.102
409.597 318.39
409.549 331.287
409.5 338.125
409.452 303.46
409.403 321.538
409.355 330.965
409.306 324.837
409.258 316.985
409.209 320.361
409.161 325.463
409.112 343.509
409.064 323.579
409.015 324.363
408.967 361.369
408.918 331.103
408.87 334.47
408.821 343.869
408.773 368.772
408.724 353.177
408.676 337.589
408.627 358.17
408.579 340.867
408.53 345.087
408.482 345.003
408.433 350.08
408.385 344.835
408.336 372.262
408.288 336.931
408.239 373.799
408.191 363.398
408.142 364.169
408.094 386.405
408.045 351.114
407.997 365.619
407.948 374.968
407.9 364.582
407.851 358.49
407.803 369.549
407.754 379.745
407.706 394.221
407.657 380.416
407.609 366.618
407.56 392.219
407.512 389.555
407.463 380.044
407.415 375.673
407.366 390.125
407.318 385.753
407.269 389.079
407.221 393.258
407.172 387.179
407.124 392.212
407.075 410.056
407.027 409.101
406.978 394.485
406.93 413.169
406.881 420.749
406.833 396.755
406.784 417.131
406.736 394.856
406.687 404.138
406.639 427.053
406.59 412.462
406.542 422.584
406.493 407.149
406.445 424.08
406.396 428.233
406.348 446.002
406.299 423.769
406.251 433.874
406.202 454.18
406.154 431.11
406.105 448.856
406.057 434.298
406.008 434.192
405.96 433.236
405.911 472.196
405.863 457.646
405.814 449.894
405.766 467.605
405.717 446.279
405.669 482.644
405.62 476.589
405.572 445.103
405.523 492.46
405.475 455.053
405.426 457.483
405.378 511.577
405.329 473.347
405.281 482.543
405.232 490.042
405.184 488.229
405.135 493.184
405.087 491.372
405.038 499.706
404.99 497.047
404.941 485.094
404.893 484.974
404.844 499.215
404.796 499.937
404.747 525.142
404.699 505.599
404.65 505.475
404.602 513.787
404.553 538.964
404.505 516.907
404.456 515.094
404.407 552.051
404.359 535.063
404.31 534.931
404.262 561.75
404.213 547.298
404.165 547.163
404.116 555.444
404.068 539.321
404.019 561.9
403.971 542.419
403.922 541.445
403.874 567.368
403.825 594.119
403.777 550.286
403.728 579.547
403.68 588.641
403.631 585.978
403.583 590.03
403.534 612.54
403.486 590.577
403.437 587.916
403.389 586.932
403.34 605.229
403.292 605.08
403.243 615.822
403.194 594.729
403.146 591.233
403.097 611.18
403.049 606.007
403.0 624.267
402.952 624.95
402.903 608.067
402.855 620.46
402.806 625.323
402.758 661.107
402.709 614.987
402.661 629.871
402.612 637.232
402.564 655.444
402.515 647.769
402.467 654.285
402.418 669.141
402.37 652.293
402.321 644.626
402.272 677.816
402.224 678.482
402.175 662.481
402.127 666.482
402.078 685.474
402.03 692.799
401.981 688.465
401.933 684.965
401.884 686.46
401.836 695.44
401.787 721.049
401.739 720.871
401.69 730.667
401.642 697.244
401.593 705.38
401.544 734.277
401.496 720.808
401.447 716.479
401.399 710.491
401.35 742.677
401.302 749.959
401.253 757.238
401.205 728.858
401.156 740.283
401.108 742.585
401.059 768.915
401.011 773.695
400.962 756.94
400.913 751.784
400.865 758.219
400.816 763.824
400.768 785.972
400.719 775.024
400.671 768.217
400.622 772.159
400.574 737.254
400.525 793.26
400.477 796.367
400.428 796.169
400.38 801.751
400.331 812.284
400.282 811.256
400.234 779.702
400.185 774.558
400.137 791.684
400.088 834.359
400.04 811.072
399.991 828.176
399.943 804.902
399.894 849.179
399.846 845.674
399.797 846.286
399.748 836.199
399.7 882.069
399.651 847.3
399.603 838.865
399.554 838.656
399.506 858.997
399.457 872.754
399.409 875.823
399.36 883.819
399.312 834.327
399.263 848.076
399.214 892.187
399.166 908.376
399.117 886.82
399.069 893.16
399.02 921.636
398.972 906.65
398.923 919.537
398.875 915.211
398.826 918.259
398.777 927.039
398.729 916.983
398.68 923.302
398.632 950.076
398.583 940.84
398.535 911.16
398.486 965.719
398.438 947.493
398.389 942.353
398.341 983.79
398.292 972.924
398.243 969.414
398.195 974.888
398.146 971.379
398.098 1002.15
398.049 974.973
398.001 964.941
397.952 982.64
397.904 997.07
397.855 967.478
397.806 990.867
397.758 1037.05
397.709 1040.05
397.661 1036.54
397.612 1047.67
397.564 1039.27
397.515 1051.22
397.466 1045.26
397.418 1050.69
397.369 1073.19
397.321 1066.42
397.272 1058.84
397.224 1088.64
397.175 1111.92
397.127 1069.41
397.078 1048.04
397.029 1124.07
396.981 1079.97
396.932 1113.77
396.884 1143.5
396.835 1122.94
396.787 1133.2
396.738 1130.48
396.69 1124.53
396.641 1129.92
396.592 1154.73
396.544 1125.3
396.495 1202.72
396.447 1186.23
396.398 1185.93
396.35 1179.98
396.301 1219.3
396.252 1181.81
396.204 1219.5
396.155 1217.57
396.107 1200.31
396.058 1250.88
396.01 1236.84
395.961 1229.27
395.912 1258.81
395.864 1299.64
395.815 1275.12
395.767 1276.41
395.718 1279.31
395.67 1309.62
395.621 1293.17
395.572 1315.4
395.524 1339.23
395.475 1308.3
395.427 1338.56
395.378 1363.17
395.33 1347.54
395.281 1351.22
395.232 1371.79
395.184 1370.64
395.135 1355.02
395.087 1361.11
395.038 1387.28
394.99 1386.93
394.941 1397.02
394.892 1395.86
394.844 1440.45
394.795 1475.39
394.747 1423.68
394.698 1491.48
394.65 1465.45
394.601 1487.53
394.552 1491.96
394.504 1510.01
394.455 1536.05
394.407 1528.46
394.358 1522.47
394.31 1524.49
394.261 1557.71
394.212 1565.31
394.164 1622.49
394.115 1581.31
394.067 1643.25
394.018 1569.33
393.969 1600.89
393.921 1632.43
393.872 1643.99
393.824 1636.39
393.775 1644.76
393.727 1708.17
393.678 1641.53
393.629 1666.64
393.581 1707.67
393.532 1692.1
393.484 1698.05
393.435 1728.69
393.386 1717.1
393.338 1794.69
393.289 1737.72
393.241 1770.71
393.192 1802.09
393.144 1833.45
393.095 1833.78
393.046 1795.95
392.998 1826.49
392.949 1818.88
392.901 1876.41
392.852 1872.76
392.803 1829.41
392.755 1887.69
392.706 1875.31
392.658 1892.29
392.609 1867.22
392.561 1890.54
392.512 1962.2
392.463 1941.1
392.415 1950.12
392.366 1930.61
392.318 1914.28
392.269 1950.22
392.22 1972.68
392.172 1983.26
392.123 2015.2
392.075 1994.12
392.026 2009.43
391.977 2021.57
391.929 2027.38
391.88 2055.31
391.832 2046.89
391.783 2021.1
391.734 2117.71
391.686 2099.01
391.637 2053.5
391.589 2114.52
391.54 2141.59
391.492 2121.33
391.443 2125.52
391.394 2131.29
391.346 2130.75
391.297 2127.06
391.249 2161.96
391.2 2176.37
391.151 2192.35
391.103 2163.46
391.054 2194.38
391.006 2124.6
390.957 2223.93
390.908 2243.02
390.86 2255.82
390.811 2192.38
390.763 2266.45
390.714 2244.67
390.665 2294.35
390.617 2270.22
390.568 2282.2
390.52 2234.54
390.471 2294.37
390.422 2282.81
390.374 2279.88
390.325 2308.3
390.277 2332.0
390.228 2336.89
390.179 2332.38
390.131 2288.72
390.082 2329.63
390.034 2388.51
389.985 2371.47
389.936 2325.5
389.888 2378.08
389.839 2399.37
389.791 2387.03
389.742 2400.49
389.693 2399.1
389.645 2372.71
389.596 2399.43
389.548 2425.36
389.499 2424.74
389.45 2459.23
389.402 2435.99
389.353 2458.76
389.305 2479.18
389.256 2492.58
389.207 2509.87
389.159 2490.53
389.11 2521.82
389.061 2532.08
389.013 2538.44
388.964 2484.87
388.916 2523.92
388.867 2531.05
388.818 2547.51
388.77 2569.41
388.721 2560.2
388.673 2554.11
388.624 2609.39
388.575 2561.34
388.527 2587.86
388.478 2611.27
388.43 2649.4
388.381 2630.1
388.332 2626.33
388.284 2700.1
388.235 2652.12
388.186 2690.19
388.138 2688.73
388.089 2735.29
388.041 2706.71
387.992 2735.44
387.943 2714.62
387.895 2778.15
387.846 2740.3
387.798 2796.84
387.749 2813.91
387.7 2807.0
387.652 2831.79
387.603 2829.52
387.555 2879.0
387.506 2905.29
387.457 2875.21
387.409 2883.74
387.36 2866.02
387.311 2923.92
387.263 2951.7
387.214 2897.74
387.166 2952.5
387.117 2943.27
387.068 3015.71
387.02 2973.34
386.971 3035.72
386.922 3059.58
386.874 3065.72
386.825 3081.1
386.777 3084.92
386.728 3114.89
386.679 3061.04
386.631 3190.93
386.582 3198.57
386.534 3156.26
386.485 3182.33
386.436 3151.56
386.388 3217.55
386.339 3236.67
386.29 3244.28
386.242 3242.68
386.193 3262.56
386.145 3253.28
386.096 3322.97
386.047 3319.05
385.999 3387.15
385.95 3401.6
385.901 3432.88
385.853 3384.53
385.804 3427.29
385.756 3484.56
385.707 3508.14
385.658 3494.24
385.61 3521.63
385.561 3521.48
385.512 3604.64
385.464 3592.25
385.415 3599.72
385.367 3745.41
385.318 3712.38
385.269 3712.95
385.221 3725.73
385.172 3715.61
385.123 3723.04
385.075 3714.46
385.026 3820.21
384.978 3810.08
384.929 3843.38
384.88 3901.79
384.832 3863.48
384.783 3915.01
384.734 3888.12
384.686 3986.03
384.637 3957.61
384.588 4041.0
384.54 4031.6
384.491 4025.24
384.443 4081.18
384.394 4041.39
384.345 4158.06
384.297 4090.93
384.248 4078.49
384.199 4130.56
384.151 4154.52
384.102 4236.13
384.053 4220.62
384.005 4280.18
383.956 4290.44
383.908 4238.57
383.859 4288.22
383.81 4272.72
383.762 4358.69
383.713 4264.46
383.664 4395.78
383.616 4375.73
383.567 4374.6
383.518 4459.67
383.47 4426.01
383.421 4427.88
383.373 4536.29
383.324 4492.82
383.275 4549.8
383.227 4534.28
383.178 4505.93
383.129 4422.52
383.081 4538.3
383.032 4596.7
382.983 4567.61
382.935 4607.13
382.886 4593.13
382.838 4623.58
382.789 4704.48
382.74 4667.87
382.692 4680.96
382.643 4614.27
382.594 4637.9
382.546 4628.43
382.497 4650.54
382.448 4659.1
382.4 4636.85
382.351 4662.7
382.302 4617.16
382.254 4682.81
382.205 4722.14
382.157 4654.1
382.108 4667.15
382.059 4654.69
382.011 4726.99
381.962 4644.77
381.913 4727.53
381.865 4713.56
381.816 4644.9
381.767 4684.89
381.719 4737.59
381.67 4704.92
381.621 4668.51
381.573 4686.75
381.524 4666.08
381.475 4691.8
381.427 4696.56
381.378 4644.5
381.33 4726.25
381.281 4668.24
381.232 4670.76
381.184 4695.68
381.135 4653.39
381.086 4587.25
381.038 4606.2
380.989 4555.76
380.94 4572.48
380.892 4573.52
380.843 4512.7
380.794 4580.08
380.746 4541.64
380.697 4526.3
380.648 4505.76
380.6 4497.89
380.551 4428.99
380.502 4494.05
380.454 4470.57
380.405 4499.15
380.357 4480.87
380.308 4482.68
380.259 4330.66
380.211 4340.68
380.162 4364.79
380.113 4355.49
380.065 4356.58
380.016 4229.28
379.967 4261.56
379.919 4253.03
379.87 4206.69
379.821 4233.76
379.773 4182.26
379.724 4227.1
379.675 4127.48
379.627 4143.43
379.578 4058.69
379.529 4108.7
379.481 4078.03
379.432 4071.04
379.383 4027.08
379.335 4042.29
379.286 4001.32
379.237 3972.19
379.189 3939.3900000000003
379.14 3906.59
379.091 3850.19
379.043 3837.37
378.994 3904.26
378.945 3823.55
378.897 3720.02
378.848 3775.83
378.799 3752.72
378.751 3750.26
378.702 3717.6
378.653 3665.79
378.605 3657.46
378.556 3621.9
378.507 3601.08
378.459 3574.37
378.41 3518.99
378.362 3515.13
378.313 3503.18
378.264 3432.42
378.216 3416.82
378.167 3454.87
378.118 3328.35
378.07 3361.99
378.021 3305.6899999999996
377.972 3249.39
377.924 3236.07
377.875 3186.07
377.826 3196.96
377.778 3104.47
377.729 3100.72
377.68 3035.42
377.632 3055.87
377.583 2944.47
377.534 2944.42
377.486 2881.43
377.437 2890.91
377.388 2816.25
377.34 2786.99
377.291 2744.215
377.242 2701.44
377.194 2670.04
377.145 2652.53
377.096 2589.0
377.047 2554.0
376.999 2461.33
376.95 2511.78
376.901 2445.44
376.853 2439.69
376.804 2399.66
376.755 2312.25
376.707 2269.7349999999997
376.658 2227.22
376.609 2182.19
376.561 2190.36
376.512 2176.67
376.463 2162.27
376.415 2098.37
376.366 2063.62
376.317 1987.42
376.269 1950.53
376.22 1928.94
376.171 1894.26
376.123 1869.425
376.074 1844.59
376.025 1786.72
375.977 1745.59
375.928 1742.23
375.879 1665.56
375.831 1671.65
375.782 1669.76
375.733 1590.28
375.685 1573.19
375.636 1543.79
375.587 1514.39
375.539 1532.82
375.49 1463.62
375.441 1421.24
375.393 1436.79
375.344 1385.75
375.295 1393.35
375.247 1350.31
375.198 1354.29
375.149 1313.45
375.1 1295.03
375.052 1242.67
375.003 1219.595
374.954 1196.52
374.906 1221.47
374.857 1173.52
374.808 1110.43
374.76 1105.09
374.711 1104.8
374.662 1090.81
374.614 1057.36
374.565 1041.95
374.516 1003.5
374.468 983.7925
374.419 964.085
374.37 971.748
374.322 955.659
374.273 943.175
374.224 900.49
374.176 903.128
374.127 873.415
374.078 876.777
374.029 867.923
373.981 843.271
373.932 824.377
373.883 800.115
373.835 775.853
373.786 744.076
373.737 761.812
373.689 751.57
373.64 730.579
373.591 725.368
373.543 702.245
373.494 679.85
373.445 694.71
373.397 661.24
373.348 627.77
373.299 628.319
373.25 614.559
373.202 595.084
373.153 581.34
373.104 584.76
373.056 560.306
373.007 567.302
372.958 538.579
372.91 549.148
372.861 543.29
372.812 524.237
372.764 505.184
372.715 512.183
372.666 468.544
372.618 496.225
372.569 480.412
372.52 463.895
372.471 449.524
372.423 437.296
372.374 432.908
372.325 414.285
372.277 406.34900000000005
372.228 398.413
372.179 416.088
372.131 400.334
372.082 371.792
372.033 380.221
371.985 362.357
371.936 362.971
371.887 350.092
371.838 341.4815
371.79 332.871
371.741 327.106
371.692 307.866
371.644 312.039
371.595 289.977
371.546 299.823
371.498 284.154
371.449 283.369
371.4 281.877
371.351 277.201
371.303 272.525
371.254 269.621
371.205 256.107
371.157 252.502
371.108 237.586
371.059 249.54
371.011 253.714
370.962 236.689
370.913 231.6825
370.864 226.676
370.816 230.852
370.767 239.259
370.718 215.564
370.67 191.869
370.621 203.102
370.572 198.817
370.524 201.583
370.475 201.529
370.426 194.431
370.377 189.449
370.329 188.694
370.28 185.124
370.231 189.297
370.183 184.322
370.134 175.13150000000002
370.085 165.941
370.037 170.818
369.988 177.097
369.939 167.916
369.89 159.442
369.842 154.484
369.793 159.357
369.744 160.016
369.696 158.57
369.647 151.513
369.598 150.07
369.549 152.834
369.501 146.837
369.452 140.84
369.403 138.701
369.355 144.266
369.306 128.124
369.257 122.49
369.209 128.055
369.16 137.116
369.111 140.576
369.062 120.96
369.014 127.918
368.965 127.884
368.916 134.836
368.868 137.593
368.819 125.689
368.77 113.785
368.721 122.129
368.673 108.84
368.624 111.2515
368.575 113.663
368.527 110.147
368.478 98.269
368.429 110.087
368.38 106.575
368.332 114.206
368.283 103.037
368.234 105.097
368.186 95.3272
368.137 100.171
368.088 107.794
368.04 91.0787
367.991 103.566
367.942 106.317
367.893 97.9522
367.845 93.7588
367.796 90.26285
367.747 86.7669
367.699 88.8254
367.65 88.8015
367.601 89.4711
367.552 85.2867
367.504 83.8773
367.455 83.1617
367.406 81.0608
367.358 92.1212
367.309 85.8642
367.26 92.7638
367.211 80.9734
367.163 88.5624
367.114 94.7638
367.065 86.44
367.016 80.1947
366.968 81.5554
366.919 79.46105
366.87 77.3667
366.822 74.5835
366.773 86.9905
366.724 69.7117
366.675 82.8034
366.627 73.8131
366.578 81.3794
366.529 79.289
366.481 82.0247
366.432 76.4897
366.383 82.6692
366.334 69.5611
366.286 78.4933
366.237 75.7187
366.188 70.8811
366.14 79.1177
366.091 70.1549
366.042 63.9475
365.993 79.7409
365.945 71.47475
365.896 63.2086
365.847 68.6864
365.798 66.6077
365.75 73.4546
365.701 74.8073
365.652 69.2981
365.604 63.7919
365.555 68.5748
365.506 66.4996
365.457 69.2231
365.409 78.1118
365.36 72.6106
365.311 65.0579
365.263 72.5712
365.214 65.0226
365.165 62.2679
365.116 66.3555
365.068 67.7053
365.019 68.3707
364.97 62.8839
364.921 64.2336
364.873 61.82575
364.824 59.4179
364.775 68.278
364.727 60.0683
364.678 64.8288
364.629 62.7646
364.58 66.1577
364.532 57.2757
364.483 66.8035
364.434 63.3779
364.385 56.5477
364.337 64.0246
364.288 64.6881
364.239 60.5861
364.191 68.0557
364.142 63.2746
364.093 54.415
364.044 65.9602
363.996 57.786699999999996
363.947 49.6132
363.898 54.35455
363.849 59.0959
363.801 75.3777
363.752 81.4672
363.703 61.7625
363.655 63.7812
363.606 61.0505
363.557 60.3557
363.508 56.2715
363.46 54.9006
363.411 60.984
363.362 56.9029
363.313 58.9191
363.265 64.3195
363.216 46.7035
363.167 48.04266
363.118 49.38182
363.07 50.72098
363.021 52.06014
362.972 53.3993
362.924 62.8453
362.875 64.1793
362.826 58.0833
362.777 51.3154
362.729 54.0015
362.68 54.6616
362.631 60.7185
362.582 51.2594
362.534 53.9426
362.485 59.3206
362.436 65.3697
362.387 59.962
362.339 51.1895
362.29 49.156000000000006
362.241 47.1225
362.192 49.127500000000005
362.144 51.1325
362.095 53.1375
362.046 53.123
361.998 59.831
361.949 49.7335
361.9 55.0951
361.851 61.7971
361.803 56.408
361.754 56.3925
361.705 53.02225
361.656 49.652
361.608 50.3092
361.559 54.319
361.51 50.9521
361.461 58.981
361.413 50.9242
361.364 50.91025
361.315 50.8963
361.266 51.5518
361.218 48.1911
361.169 56.8767
361.12 47.4958
361.071 54.8392
361.023 50.8127
360.974 50.7987
360.925 58.1352
360.876 51.4389
360.828 54.0962
360.779 48.74
360.73 51.062200000000004
360.681 53.3844
360.633 53.3698
360.584 50.0204
360.535 56.0075
360.487 56.6587
360.438 54.644
360.389 57.2938
360.34 54.614
360.292 59.9257
360.243 57.2466
360.194 52.5726
360.145 59.2111
360.097 52.5437
360.048 51.8643
359.999 56.5033
359.95 48.513
359.902 46.5065
359.853 51.1431
359.804 47.145
359.755 54.4342
359.707 51.7646
359.658 55.0677
359.609 43.7767
359.56 44.69198
359.512 45.60726
359.463 46.52254
359.414 47.437819999999995
359.365 48.3531
359.317 56.9483
359.268 48.3265
359.219 50.2987
359.17 49.6232
359.122 51.5939
359.073 52.9022
359.024 51.5655
358.975 48.2467
358.927 48.2334
358.878 49.5412
358.829 50.1879
358.78 48.194050000000004
358.732 46.2002
358.683 50.1464
358.634 46.8344
358.585 46.162
358.537 49.4456
358.488 56.0229
358.439 52.054
358.39 49.4047
358.342 46.428399999999996
358.293 43.4521
358.244 51.3384
358.195 57.9042
358.147 48.6787
358.098 49.9806
358.049 47.99495
358.0 46.0093
357.951 47.3108
357.903 49.9253
357.854 45.9712
357.805 49.8977
357.756 45.618700000000004
357.708 41.3397
357.659 45.26325
357.61 49.1868
357.561 47.2062
357.513 47.8486
357.464 46.5248
357.415 50.4425
357.366 55.013
357.318 49.1052
357.269 51.0552
357.22 47.1149
357.171 46.1208
357.123 45.1267
357.074 50.3449
357.025 46.409
356.976 41.8219
356.928 47.0366
356.879 49.636
356.83 54.1927
356.781 47.6503
356.733 46.3319
356.684 52.8429
356.635 50.2194
356.586 44.3373
356.538 46.9324
356.489 46.2677
356.44 44.3005
356.391 48.1959
356.342 44.2759
356.294 43.6126
356.245 54.0126
356.196 44.8896
356.147 46.1779
356.099 41.6136
356.05 46.8023
356.001 52.638
355.952 47.426
355.904 47.4128
355.855 45.12765
355.806 42.8425
355.757 44.7775
355.709 48.6576
355.66 45.4012
355.611 49.9274
355.562 45.3759
355.513 44.715450000000004
355.465 44.055
355.416 48.5765
355.367 44.0317
355.318 39.4869
355.27 45.9474
355.221 43.3467
355.172 43.3347
355.123 42.0294
355.075 44.6034
355.026 46.5297
354.977 40.7022
354.928 47.1497
354.88 42.940650000000005
354.831 38.7316
354.782 38.0754
354.733 43.8713
354.684 44.5041
354.636 45.458650000000006
354.587 46.4132
354.538 41.2446
354.489 45.743
354.441 42.5098
354.392 49.5809
354.343 42.4861
354.294 48.9097
354.246 42.4624
354.197 44.3801
354.148 43.40345
354.099 42.4268
354.05 46.2709
354.002 46.9004
353.953 43.6759
353.904 43.0216
353.855 40.4418
353.807 47.4898
353.758 40.4192
353.709 41.690349999999995
353.66 42.9615
353.612 48.0778
353.563 47.4235
353.514 46.1289
353.465 44.1945
353.416 41.6208
353.368 42.2493
353.319 48.6371
353.27 51.8224
353.221 47.9703
353.173 43.4809
353.124 40.91245
353.075 38.344
353.026 37.6944
352.977 45.3484
352.929 40.86725
352.88 36.3861
352.831 39.5667
352.782 49.7635
352.734 52.3009
352.685 43.68055
352.636 35.0602
352.587 36.164675
352.539 37.269149999999996
352.49 38.373625
352.441 39.4781
352.392 48.3789
352.343 41.3651
352.295 47.7156
352.246 40.7059
352.197 41.3303
352.148 38.14125
352.1 34.9522
352.051 40.0249
352.002 39.3785
351.953 38.73265
351.904 38.0868
351.856 45.0568
351.807 53.2916
351.758 48.2027
351.709 43.11805
351.661 38.0334
351.612 43.0924
351.563 41.8132
351.514 39.268
351.465 39.8901
351.417 46.2089
351.368 45.5631
351.319 40.4891
351.27 43.0076
351.221 38.5695
351.173 42.9834
351.124 44.8671
351.075 45.4862
351.026 40.4208
350.978 39.778
350.929 38.5044
350.88 40.3867
350.831 46.0531
350.782 35.9491
350.734 41.6136
350.685 39.7109
350.636 34.0283
350.587 44.0983
350.539 41.5667
350.49 47.2216
350.441 42.1727
350.392 39.6438
350.343 39.0035
350.295 44.6527
350.246 47.7838
350.197 42.4291
350.148 37.0744
350.099 38.3203
350.051 42.7057
350.002 43.9493
349.953 41.4262
349.904 43.9245
349.856 43.2848
349.807 43.2725
349.758 43.2603
349.709 39.4874
349.66 43.8625
349.612 37.5858
349.563 43.2114
349.514 42.5731
349.465 42.5611
349.416 38.7958
349.368 35.0305
349.319 35.0206
349.27 35.6359
349.221 38.1259
349.173 44.3635
349.124 38.1043
349.075 34.3466
349.026 36.8341
348.977 37.4478
348.929 37.4372
348.88 39.2979
348.831 36.1688
348.782 36.782
348.733 40.5111
348.685 37.3842
348.636 44.2255
348.587 35.4949
348.538 41.7102
348.489 39.209
348.441 44.7975
348.392 42.2975
348.343 39.7975
348.294 39.1645
348.246 36.6675
348.197 34.483149999999995
348.148 32.2988
348.099 32.73996363636363
348.05 33.181127272727274
348.002 33.62229090909091
347.953 34.06345454545455
347.904 34.50461818181818
347.855 34.94578181818182
347.806 35.386945454545454
347.758 35.828109090909095
347.709 36.26927272727273
347.66 36.71043636363636
347.611 37.1516
347.562 32.1889
347.514 33.416019999999996
347.465 34.643139999999995
347.416 35.87026
347.367 37.09738
347.318 38.3245
347.27 38.9316
347.221 36.4494
347.172 41.9975
347.123 36.4286
347.074 43.2081
347.026 36.40985
346.977 29.6116
346.928 31.7611
346.879 33.9106
346.831 40.0648
346.782 35.7399
346.733 44.9702
346.684 40.0305
346.635 40.6348
346.587 36.3147
346.538 32.6124
346.489 34.140550000000005
346.44 35.6687
346.391 37.5029
346.343 41.7946
346.294 36.8671
346.245 40.5422
346.196 39.9166
346.147 45.4305
346.099 33.7563
346.05 36.50695
346.001 39.2576
345.952 39.2464
345.903 34.3308
345.855 41.0626
345.806 36.762
345.757 36.7515
345.708 41.6398
345.659 47.1375
345.611 40.392
345.562 35.7931
345.513 31.1942
345.464 37.3
345.415 39.7346
345.367 36.0565
345.318 37.2681
345.269 37.2574
345.22 46.4058
345.171 36.6257
345.123 37.8357
345.074 36.6047
345.025 36.5942
344.976 35.974
344.927 41.4497
344.879 43.8754
344.83 39.9041
344.781 35.9328
344.732 38.9668
344.683 35.3036
344.635 37.422650000000004
344.586 39.5417
344.537 41.3548
344.488 37.0871
344.439 35.8608
344.39 40.104
344.342 40.0925
344.293 35.83
344.244 36.4269
344.195 34.8995
344.146 33.3721
344.098 37.0021
344.049 38.2043
344.0 43.6496
343.951 31.5156
343.902 32.19782857142857
343.854 32.88005714285714
343.805 33.562285714285714
343.756 34.24451428571429
343.707 34.92674285714286
343.658 35.60897142857143
343.61 36.2912
343.561 34.4667
343.512 33.2478
343.463 40.4902
343.414 41.0827
343.366 37.447
343.317 41.6629
343.268 36.2182
343.219 37.4147
343.17 36.8007
343.122 33.7754
343.073 30.7501
343.024 36.7689
342.975 37.3609
342.926 39.1574
342.877 35.5327
342.829 36.7266
342.78 34.3084
342.731 35.502
342.682 43.312
342.633 39.0898
342.585 40.8822
342.536 37.2642
342.487 39.6569
342.438 39.6455
342.389 34.8299
342.341 34.8199
342.292 41.4117
342.243 38.9998
342.194 35.3896
342.145 34.1801
342.096 37.1676
342.048 37.7562
341.999 35.05
341.95 32.3438
341.901 35.9271
341.852 31.7265
341.804 32.3156
341.755 32.9047
341.706 37.0819
341.657 37.0711
341.608 34.6694
341.56 38.2449
341.511 35.2468
341.462 41.2089
341.413 34.9297
341.364 28.6505
341.315 32.8192
341.267 37.5821
341.218 34.29215
341.169 31.0022
341.12 32.18456666666667
341.071 33.366933333333336
341.023 34.5493
340.974 31.5618
340.925 32.94096666666667
340.876 34.32013333333333
340.827 35.6993
340.779 35.0942
340.73 37.4626
340.681 33.2904
340.632 32.0922
340.583 36.2418
340.534 34.4494
340.486 38.0021
340.437 33.8359
340.388 33.826
340.339 37.3758
340.29 31.434
340.242 31.7213
340.193 32.0086
340.144 33.777
340.095 34.952
340.046 37.3108
339.997 40.2603
339.949 36.6983
339.9 33.1363
339.851 38.4506
339.802 37.2567
339.753 31.3339
339.705 34.871
339.656 35.4517
339.607 33.0786
339.558 31.888
339.509 37.7822
339.46 36.0007
339.412 35.9902
339.363 35.3899
339.314 37.1486
339.265 30.0639
339.216 33.0018
339.167 34.1705
339.119 31.8046
339.07 29.73515
339.021 27.6657
338.972 32.9538
338.923 31.76795
338.875 30.5821
338.826 30.5732
338.777 30.5643
338.728 35.8439
338.679 32.8963
338.63 34.647999999999996
338.582 36.3997
338.533 29.9329
338.484 28.7507
338.435 25.8094
338.386 26.38815
338.338 26.9669
338.289 27.690974999999998
338.24 28.41505
338.191 29.139125
338.142 29.8632
338.093 30.4398
338.045 38.0387
337.996 39.1977
337.947 60.8264
337.898 52.23806666666667
337.849 43.64973333333333
337.8 35.0614
337.752 35.6354
337.703 36.793
337.654 36.7823
337.605 32.6858
337.556 29.7596
337.507 26.8334
337.459 26.8255
337.41 27.691375
337.361 28.557250000000003
337.312 29.423125000000002
337.263 30.289
337.215 28.5332
337.166 31.14375
337.117 33.7543
337.068 34.908
337.019 38.3876
336.97 34.8886
336.922 31.3896
336.873 30.7993
336.824 36.5998
336.775 34.266
336.726 34.2559
336.677 29.0219
336.629 33.6556
336.58 32.4855
336.531 33.6359
336.482 31.307
336.433 33.6162
336.384 35.924
336.336 35.3342
336.287 31.8504
336.238 28.3666
336.189 28.502824999999998
336.14 28.639049999999997
336.091 28.775275
336.043 28.9115
335.994 36.4178
335.945 33.22965
335.896 30.0415
335.847 32.9204
335.798 33.4882
335.75 28.2834
335.701 32.8915
335.652 31.728
335.603 28.2585
335.554 32.8625
335.505 34.0055
335.457 35.1479
335.408 33.9855
335.359 36.8548
335.31 29.9358
335.261 33.3801
335.212 36.8223
335.164 33.3604
335.115 31.6256
335.066 35.0653
335.017 39.0777
334.968 32.1722
334.919 30.4397
334.871 35.024
334.822 33.8657
334.773 37.2987
334.724 27.5356
334.675 30.9684
334.626 34.9725
334.578 36.1085
334.529 31.515349999999998
334.48 26.9222
334.431 27.4869
334.382 28.337249999999997
334.333 29.1876
334.285 29.7512
334.236 28.0265
334.187 28.875175
334.138 29.72385
334.089 30.572525
334.04 31.4212
333.992 33.6964
333.943 35.3993
333.894 29.681
333.845 33.6666
333.796 33.6566
333.747 34.7872
333.699 31.9264
333.65 38.1864
333.601 27.9191
333.552 25.6324
333.503 29.0415
333.454 31.8792
333.406 34.1462
333.357 28.44845
333.308 22.7507
333.259 23.392642857142857
333.21 24.03458571428571
333.161 24.67652857142857
333.113 25.318471428571428
333.064 25.960414285714286
333.015 26.60235714285714
332.966 27.2443
332.917 32.3431
332.868 30.6317
332.82 27.7872
332.771 32.8813
332.722 30.6045
332.673 27.196
332.624 31.1528
332.575 26.6136
332.526 31.7004
332.478 26.0319
332.429 31.1159
332.38 28.2788
332.331 31.0974
332.282 30.80565
332.233 30.5139
332.185 31.35195
332.136 32.19
332.087 34.4387
332.038 32.7353
331.989 34.4183
331.94 31.0237
331.892 36.0895
331.843 29.8778
331.794 33.8139
331.745 30.9868
331.696 27.035
331.647 29.8423
331.598 36.0253
331.55 30.95
331.501 30.3782
331.452 26.9949
331.403 32.0469
331.354 30.6326
331.305 29.2183
331.257 28.0862
331.208 31.4472
331.159 35.9289
331.11 31.9897
331.061 35.3465
331.012 32.53235
330.964 29.7182
330.915 30.8305
330.866 29.1402
330.817 28.5713
330.768 29.6829
330.719 30.7938
330.67 27.4263
330.622 26.8586
330.573 32.4444
330.524 32.4347
330.475 27.9527
330.426 30.7387
330.377 27.3773
330.329 31.279
330.28 28.4777
330.231 32.935
330.182 30.6929
330.133 32.3574
330.084 29.0014
330.035 27.8777
329.987 25.6398
329.938 24.5177
329.889 33.4232
329.84 26.1737
329.791 26.94436
329.742 27.71502
329.694 28.485680000000002
329.645 29.25634
329.596 30.027
329.547 32.2416
329.498 28.620849999999997
329.449 25.0001
329.4 27.2142
329.352 29.4269
329.303 28.8631
329.254 25.5251
329.205 31.6194
329.156 27.1735
329.107 29.9373
329.058 28.2657
329.01 32.6897
328.961 29.9104
328.912 29.3477
328.863 29.8925
328.814 30.9904
328.765 28.7681
328.717 32.631
328.668 29.85755
328.619 27.0841
328.57 30.9439
328.521 32.5919
328.472 30.9254
328.423 33.6765
328.375 30.9068
328.326 29.2423
328.277 29.7851
328.228 27.5706
328.179 29.216
328.13 33.0648
328.081 31.9531
328.033 26.9867
327.984 31.3833
327.935 29.1722
327.886 29.1634
327.837 30.8049
327.788 30.2457
327.739 30.2366
327.691 31.3267
327.642 28.021749999999997
327.593 24.7168
327.544 25.441033333333333
327.495 26.165266666666668
327.446 26.8895
327.398 23.0424
327.349 19.1953
327.3 19.37135
327.251 19.5474
327.202 19.72345
327.153 19.8995
327.104 20.07555
327.056 20.2516
327.007 20.42765
326.958 20.6037
326.909 20.77975
326.86 20.9558
326.811 21.13185
326.762 21.3079
326.714 21.48395
326.665 21.66
326.616 21.83605
326.567 22.0121
326.518 22.18815
326.469 22.3642
326.42 26.1746
326.372 28.0741
326.323 29.9736
326.274 27.24135
326.225 24.5091
326.176 26.1351
326.127 29.9375
326.078 28.8401
326.03 28.8314
325.981 30.4542
325.932 28.2703
325.883 24.4573
325.834 28.7966
325.785 28.7879
325.736 27.6932
325.688 29.8561
325.639 27.6764
325.59 28.2106
325.541 27.1177
325.492 26.0248
325.443 28.727
325.394 29.2601
325.346 25.4595
325.297 29.784
325.248 31.9404
325.199 28.1435
325.15 24.3466
325.101 25.555075
325.052 26.76355
325.004 27.972025
324.955 29.1805
324.906 27.28145
324.857 25.3824
324.808 25.9146
324.759 28.0657
324.71 28.5967
324.661 25.8911
324.613 30.7363
324.564 24.2582
324.515 25.687033333333332
324.466 27.115866666666665
324.417 28.5447
324.368 27.9976
324.319 29.0656
324.271 31.7473
324.222 31.1997
324.173 27.42705
324.124 23.6544
324.075 22.5723
324.026 23.236424999999997
323.977 23.90055
323.929 24.564675
323.88 25.2288
323.831 26.831
323.782 28.4322
323.733 27.351
323.684 27.3426
323.635 27.8703
323.587 26.7902
323.538 25.1751
323.489 27.8448
323.44 25.6951
323.391 28.3631
323.342 24.6095
323.293 28.3458
323.244 27.8025
323.196 29.3975
323.147 24.0452
323.098 23.5037
323.049 26.7006
323.0 27.2263
322.951 29.3528
322.902 22.408
322.854 22.9342
322.805 23.4604
322.756 23.9866
322.707 29.308
322.658 31.4299
322.609 28.2251
322.56 31.9431
322.512 25.5467
322.463 26.603
322.414 24.6458
322.365 22.6886
322.316 20.7314
322.267 21.43316666666667
322.218 22.134933333333333
322.169 22.8367
322.121 26.5462
322.072 28.1304
322.023 27.0609
321.974 25.9914
321.925 26.24855
321.876 26.5057
321.827 28.0874
321.779 28.6086
321.73 32.8369
321.681 32.2974
321.632 29.641800000000003
321.583 26.9862
321.534 28.0359
321.485 27.4985
321.436 32.248
321.388 24.8392
321.339 24.3032
321.29 22.7113
321.241 25.34355
321.192 27.9758
321.143 24.8011
321.094 23.211
321.046 27.4227
320.997 25.3055
320.948 25.2978
320.899 29.505
320.85 25.809
320.801 29.4869
320.752 22.1084
320.703 23.153433333333332
320.655 24.19846666666667
320.606 25.2435
320.557 27.0753
320.508 28.9071
320.459 26.7965
320.41 28.8893
320.361 25.993299999999998
320.312 23.0973
320.264 23.615
320.215 26.2308
320.166 24.1249
320.117 25.1661
320.068 27.2549
320.019 24.6266
319.97 27.2381
319.921 29.3243
319.873 26.1744
319.824 29.3063
319.775 30.8668
319.726 27.1962
319.677 25.0965
319.628 30.3156
319.579 32.3963
319.531 27.947649999999996
319.482 23.499
319.433 27.146
319.384 25.572
319.335 29.7379
319.286 27.1209
319.237 23.9842
319.188 22.674100000000003
319.14 21.364
319.091 22.007975000000002
319.042 22.65195
318.993 23.295925
318.944 23.9399
318.895 26.5338
318.846 28.086
318.797 27.5574
318.749 23.3905
318.7 26.5011
318.651 24.9345
318.602 26.4847
318.553 23.8808
318.504 28.5443
318.455 24.9037
318.406 27.4893
318.358 22.2958
318.309 24.361649999999997
318.26 26.4275
318.211 29.5275
318.162 24.8576
318.113 25.8853
318.064 32.6054
318.015 21.2128
317.967 22.75745
317.918 24.3021
317.869 28.4298
317.82 29.9712
317.771 27.379
317.722 27.3705
317.673 25.297
317.624 24.7731
317.576 24.7654
317.527 24.2419
317.478 29.9063
317.429 28.351100000000002
317.38 26.7959
317.331 26.7876
317.282 30.3842
317.233 25.228099999999998
317.185 20.072
317.136 21.0945
317.087 22.117
317.038 23.6527
316.989 26.7295
316.94 25.1796
316.891 23.117
316.842 28.7589
316.794 25.1562
316.745 22.5822
316.696 23.6013
316.647 22.5682
316.598 26.6632
316.549 25.63005
316.5 24.5969
316.451 24.077
316.402 27.6543
316.354 23.0381
316.305 27.1253
316.256 27.1169
316.207 30.6888
316.158 26.58995
316.109 22.4911
316.06 23.5061
316.011 26.5639
315.963 24.5129
315.914 26.0368
315.865 26.0287
315.816 27.5512
315.767 22.9522
315.718 23.4549
315.669 20.899749999999997
315.62 18.3446
315.572 18.8483
315.523 26.4813
315.474 27.4912
315.425 23.4111
315.376 27.9828
315.327 24.9224
315.278 21.3554
315.229 24.9068
315.181 23.3746
315.132 25.3993
315.083 22.3444
315.034 22.3374
314.985 23.598799999999997
314.936 24.8602
314.887 28.4028
314.838 23.3252
314.789 18.2476
314.741 18.44402
314.692 18.640439999999998
314.643 18.836859999999998
314.594 19.033279999999998
314.545 19.2297
314.496 19.42612
314.447 19.62254
314.398 19.81896
314.35 20.01538
314.301 20.2118
314.252 25.2568
314.203 22.22
314.154 19.1832
314.105 19.76503333333333
314.056 20.346866666666667
314.007 20.9287
313.958 21.51053333333333
313.91 22.092366666666667
313.861 22.6742
313.812 21.40825
313.763 20.1423
313.714 24.1631
313.665 25.6653
313.616 23.1418
313.567 27.158
313.518 23.6301
313.47 26.6383
313.421 26.63
313.372 30.64
313.323 22.094
313.274 22.0871
313.225 24.0874
313.176 22.3246
313.127 20.5618
313.079 19.552950000000003
313.03 18.5441
312.981 18.0372
312.932 21.03585
312.883 24.0345
312.834 26.5298
312.785 26.0211
312.736 26.5131
312.687 27.0049
312.639 23.4969
312.59 23.9892
312.541 28.4783
312.492 26.9709
312.443 24.96585
312.394 22.9608
312.345 26.9455
312.296 25.4405
312.247 21.9417
312.199 23.9289
312.15 26.4132
312.101 23.9138
312.052 21.416849999999997
312.003 18.9199
311.954 19.1627
311.905 19.4055
311.856 21.8865
311.807 23.8687
311.759 20.8785
311.71 22.6107
311.661 24.3429
311.612 24.8318
311.563 24.824
311.514 26.3051
311.465 24.8083
311.416 24.8005
311.368 26.7761
311.319 24.289949999999997
311.27 21.8038
311.221 21.3015
311.172 23.2757
311.123 24.7536
311.074 22.2712
311.025 21.27495
310.976 20.2787
310.928 20.7667
310.879 24.7145
310.83 25.2008
310.781 23.7109
310.732 24.691
310.683 26.1642
310.634 27.143
310.585 23.6809
310.536 24.6598
310.488 20.7077
310.439 23.6584
310.39 21.68065
310.341 19.7029
310.292 19.450499999999998
310.243 19.1981
310.194 21.6526
310.145 23.1215
310.096 23.606
310.048 21.632
309.999 24.574
309.95 23.0922
309.901 24.5584
309.852 22.0956
309.803 22.0886
309.754 25.5165
309.705 19.1313
309.656 19.492675
309.607 19.85405
309.559 20.215425
309.51 20.5768
309.461 20.81505
309.412 21.0533
309.363 17.6204
309.314 18.5928
309.265 19.5652
309.216 20.5376
309.167 22.4864
309.119 19.5472
309.07 21.4951
309.021 23.9301
308.972 24.4107
308.923 22.9387
308.874 19.5161
308.825 22.9241
308.776 27.3052
308.727 15.598
308.679 15.669086842105264
308.63 15.740173684210527
308.581 15.81126052631579
308.532 15.882347368421053
308.483 15.953434210526316
308.434 16.02452105263158
308.385 16.095607894736844
308.336 16.166694736842107
308.287 16.23778157894737
308.239 16.308868421052633
308.19 16.379955263157896
308.141 16.45104210526316
308.092 16.522128947368422
308.043 16.593215789473685
307.994 16.66430263157895
307.945 16.73538947368421
307.896 16.806476315789475
307.847 16.877563157894738
307.798 16.94865
307.75 17.019736842105264
307.701 17.090823684210527
307.652 17.16191052631579
307.603 17.232997368421053
307.554 17.304084210526316
307.505 17.37517105263158
307.456 17.446257894736842
307.407 17.517344736842105
307.358 17.588431578947368
307.31 17.65951842105263
307.261 17.730605263157894
307.212 17.801692105263157
307.163 17.87277894736842
307.114 17.943865789473683
307.065 18.014952631578947
307.016 18.08603947368421
306.967 18.157126315789473
306.918 18.228213157894736
306.869 18.2993
306.821 21.6632
306.772 23.5813
306.723 21.1683
306.674 22.1234
306.625 20.4341
306.576 18.7448
306.527 19.09835
306.478 19.451900000000002
306.429 19.80545
306.381 20.159
306.332 20.51255
306.283 20.8661
306.234 21.21965
306.185 21.5732
306.136 26.838
306.087 24.913
306.038 25.38334
305.989 25.85368
305.94 26.32402
305.892 26.79436
305.843 27.2647
305.794 18.1706
305.745 21.5109
305.696 22.9376
305.647 25.3188
305.598 54.9193
305.549 50.681357142857145
305.5 46.44341428571428
305.451 42.20547142857143
305.403 37.96752857142857
305.354 33.72958571428571
305.305 29.491642857142857
305.256 25.2537
305.207 24.2929
305.158 21.9042
305.109 20.2316
305.06 18.559
305.011 19.1869
304.963 19.814799999999998
304.914 20.4427
304.865 19.24835
304.816 18.054
304.767 18.9975
304.718 19.941
304.669 20.8845
304.62 18.9798
304.571 22.294
304.522 25.132
304.474 22.04365
304.425 18.9553
304.376 19.896349999999998
304.327 20.8374
304.278 20.3572
304.229 21.7705
304.18 21.2903
304.131 20.3375
304.082 25.0591
304.033 22.6877
303.985 22.2078
303.936 23.6177
303.887 16.0549
303.838 17.465400000000002
303.789 18.8759
303.74 22.6437
303.691 23.108
303.642 23.572
303.593 20.2653
303.544 19.7878
303.496 19.3103
303.447 20.01005
303.398 20.7098
303.349 27.2904
303.3 23.51985
303.251 19.7493
303.202 18.8027
303.153 19.50125
303.104 20.1998
303.055 21.1325
303.007 21.1257
302.958 20.6497
302.909 20.1737
302.86 20.6361
302.811 22.036
302.762 20.154
302.713 20.6161
302.664 23.8881
302.615 21.5392
302.566 20.1279
302.518 18.484099999999998
302.469 16.8403
302.42 17.6524
302.371 18.4645
302.322 19.2766
302.273 20.0887
302.224 21.4833
302.175 21.4763
302.126 19.13645
302.077 16.7966
302.028 17.6066
301.98 18.416600000000003
301.931 19.2266
301.882 20.0366
301.833 24.2224
301.784 21.6542
301.735 19.086
301.686 19.0798
301.637 19.0736
301.588 19.0674
301.539 19.0612
301.491 20.2165
301.442 21.3718
301.393 19.9714
301.344 17.4121
301.295 14.8528
301.246 16.2395
301.197 17.6262
301.148 22.7211
301.099 19.9324
301.05 24.5599
301.002 20.3827
300.953 19.4498
300.904 21.2953
300.855 19.8999
300.806 23.1319
300.757 22.1994
300.708 25.8908
300.659 22.87915
300.61 19.8675
300.561 19.399250000000002
300.512 18.931
300.464 20.3096
300.415 18.9187
300.366 18.2208
300.317 17.5229
300.268 18.20845
300.219 18.894
300.17 20.49965
300.121 22.1053
300.072 20.02705
300.023 17.9488
299.975 21.1635
