Wavelength Intensity
700.006 6901.28
699.962 6675.79
699.918 6797.24
699.874 6718.29
699.83 6661.61
699.786 6719.03
699.742 6726.35
699.698 6764.27
699.654 6554.67
699.61 6625.97
699.566 6638.86
699.522 6690.66
699.478 6697.98
699.434 6660.84
699.389 6659.83
699.345 6622.7
699.301 6735.58
699.257 6529.04
699.213 6719.64
699.169 6699.19
699.125 6820.31
699.081 6683.27
699.037 6635.08
698.993 6667.37
698.949 6730.16
698.905 6687.53
698.861 6708.7
698.817 6588.44
698.773 6559.72
698.729 6722.27
698.685 6543.86
698.641 6686.97
698.597 6497.54
698.553 6502.09
698.509 6523.26
698.465 6574.89
698.421 6584.96
698.377 6489.83
698.333 6452.85
698.289 6565.35
698.245 6500.7
698.201 6339.22
698.157 6523.62
698.113 6359.42
698.068 6363.99
698.024 6540.0
697.98 6483.71
697.936 6410.84
697.892 6396.04
697.848 6314.93
697.804 6244.88
697.76 6390.36
697.716 6436.35
697.672 6421.56
697.628 6564.18
697.584 6234.61
697.54 6421.38
697.496 6329.32
697.452 6482.9
697.408 6429.49
697.364 6478.17
697.319 6419.25
697.275 6456.89
697.231 6400.75
697.187 6339.11
697.143 6338.15
697.099 6444.68
697.055 6325.19
697.011 6340.76
696.967 6259.89
696.923 6261.69
696.879 6340.62
696.835 6152.38
696.791 6148.69
696.746 6277.15
696.702 6182.6
696.658 6162.39
696.614 6188.97
696.57 6303.59
696.526 6299.87
696.482 6370.43
696.438 6275.95
696.394 6261.24
696.35 6271.29
696.306 6165.87
696.261 6186.92
696.217 6320.63
696.173 6204.26
696.129 6175.85
696.085 6207.87
696.041 6143.75
695.997 6260.89
695.953 6092.46
695.909 6151.92
695.864 6269.0
695.82 6342.14
695.776 6439.96
695.732 6120.73
695.688 6278.89
695.644 6332.79
695.6 6205.68
695.556 6366.5
695.512 6335.37
695.467 6200.1
695.423 6223.81
695.379 6346.17
695.335 6435.61
695.291 6336.02
695.247 6414.48
695.203 6369.68
695.159 6448.11
695.114 6406.06
695.07 6372.24
695.026 6387.68
694.982 6444.17
694.938 6248.93
694.894 6371.08
694.85 6164.97
694.806 6322.64
694.761 6174.03
694.717 6184.02
694.673 6163.94
694.629 6135.67
694.585 6099.2
694.541 6005.38
694.497 6132.85
694.452 6066.36
694.408 5928.89
694.364 6089.08
694.32 5962.57
694.276 5988.95
694.232 6116.31
694.188 6019.87
694.143 5967.11
694.099 5848.89
694.055 6003.47
694.011 5961.64
693.967 5974.37
693.923 5959.82
693.878 5909.84
693.834 5873.51
693.79 5995.24
693.746 5882.61
693.702 6001.58
693.658 6164.09
693.613 5871.74
693.569 5919.86
693.525 5910.78
693.481 5918.04
693.437 5955.24
693.393 6008.76
693.348 5874.51
693.304 5936.19
693.26 5886.32
693.216 5947.97
693.172 5835.57
693.128 5793.89
693.083 5866.4
693.039 5816.58
692.995 5799.38
692.951 5765.895
692.907 5732.41
692.862 5720.66
692.818 5771.39
692.774 5705.33
692.73 5530.69
692.686 5738.88
692.642 5800.43
692.597 5712.7
692.553 5744.38
692.509 5648.55
692.465 5625.98
692.421 5687.5
692.376 5697.48
692.332 5598.99
692.288 5768.93
692.244 5643.36
692.2 5658.75
692.155 5584.72
692.111 5551.36
692.067 5658.86
692.023 5563.2
691.979 5689.62
691.934 5615.65
691.89 5601.25
691.846 5576.03
691.802 5672.6
691.758 5666.32
691.713 5589.7
691.669 5629.42
691.625 5585.28
691.581 5403.23
691.536 5461.89
691.492 5607.04
691.448 5646.73
691.404 5464.78
691.36 5590.95
691.315 5552.27
691.271 5648.67
691.227 5483.04
691.183 5538.91
691.138 5500.26
691.094 5539.91
691.05 5638.94
691.006 5508.53
690.961 5480.7
690.917 5423.19
690.873 5433.15
690.829 5534.82
690.785 5423.39
690.74 5419.87
690.696 5529.57
690.652 5321.16
690.608 5403.9
690.563 5470.44
690.519 5515.4
690.475 5479.53
690.431 5325.16
690.386 5459.0
690.342 5512.01
690.298 5274.24
690.254 5402.65
690.209 5353.37
690.165 5427.9
690.121 5394.78
690.077 5385.88
690.032 5430.78
689.988 5467.6
689.944 5353.82
689.9 5412.14
689.855 5438.19
689.811 5375.54
689.767 5390.84
689.722 5430.31
689.678 5426.79
689.634 5364.18
689.59 5478.84
689.545 5225.58
689.501 5431.51
689.457 5339.41
689.413 5309.06
689.368 5302.88
689.324 5146.44
689.28 5320.03
689.236 5225.33
689.191 5310.35
689.147 5242.49
689.103 5407.92
689.058 5227.48
689.014 5336.57
688.97 5362.55
688.926 5251.86
688.881 5159.96
688.837 5231.49
688.793 5311.04
688.748 5310.22
688.704 5215.69
688.66 5313.94
688.616 5171.26
688.571 5199.91
688.527 5252.62
688.483 5211.68
688.438 5240.31
688.394 5079.03
688.35 5252.07
688.305 5328.8
688.261 5124.8
688.217 5217.57
688.173 5211.42
688.128 5256.04
688.084 5135.01
688.04 5254.42
687.995 5200.2
687.951 5207.41
687.907 5070.43
687.862 5168.43
687.818 5090.23
687.774 5158.83
687.729 5238.09
687.685 5191.93
687.641 5148.45
687.596 4958.29
687.552 5077.53
687.508 5076.74
687.464 5265.25
687.419 5136.49
687.375 4959.8
687.331 5108.26
687.286 5139.44
687.242 5146.64
687.198 5132.53
687.153 5113.1
687.109 5106.99
687.065 5178.08
687.02 5126.71
686.976 4979.54
686.932 5252.86
686.887 4954.06
686.843 5123.55
686.799 5056.27
686.754 5103.36
686.71 5155.75
686.666 5053.93
686.621 5055.81
686.577 5025.79
686.532 5035.65
686.488 5090.67
686.444 4991.59
686.399 5030.66
686.355 5122.84
686.311 4925.55
686.266 4993.82
686.222 4974.47
686.178 4841.0
686.133 4978.24
686.089 5123.4
686.045 5138.53
686.0 4938.81
685.956 5004.34
685.912 4937.28
685.867 5018.71
685.823 5044.44
685.778 5011.86
685.734 5122.38
685.69 4957.32
685.645 4887.68
685.601 5101.47
685.557 5124.52
685.512 4909.25
685.468 4953.5
685.424 4952.73
685.379 4880.51
685.335 4940.62
685.29 4902.81
685.246 4957.61
685.202 4911.88
685.157 4953.44
685.113 5050.51
685.068 4988.92
685.024 4903.56
684.98 4836.73
684.935 4917.9
684.891 4896.0
684.847 4859.585
684.802 4823.17
684.758 4883.17
684.713 4929.95
684.669 4958.23
684.625 4870.35
684.58 4964.61
684.536 4808.15
684.491 4944.61
684.447 4988.69
684.403 4887.69
684.358 4873.75
684.314 4767.52
684.269 4866.97
684.225 4882.03
684.181 4910.27
684.136 4935.86
684.092 4890.31
684.047 4936.97
684.003 4975.72
683.959 4906.48
683.914 4889.92
683.87 4970.78
683.825 4838.39
683.781 4966.61
683.737 4902.68
683.692 4941.39
683.648 4953.78
683.603 4992.47
683.559 4960.14
683.514 4988.3
683.47 5042.74
683.426 4931.55
683.381 4909.76
683.337 4953.68
683.292 5052.76
683.248 4946.89
683.203 5111.61
683.159 5047.79
683.115 5089.02
683.07 5001.59
683.026 4906.31
682.981 4931.8
682.937 4973.02
682.892 4980.13
682.848 4966.24
682.804 4965.47
682.759 4904.38
682.715 4945.58
682.67 5062.79
682.626 5022.69
682.581 5061.23
682.537 5000.17
682.492 5070.14
682.448 5231.78
682.404 4916.64
682.359 5054.69
682.315 4870.6
682.27 4982.43
682.226 4994.75
682.181 5072.5
682.137 4995.82
682.092 5063.08
682.048 4962.88
682.004 5205.37
681.959 5081.65
681.915 5046.86
681.87 5004.25
681.826 5021.77
681.781 5005.31
681.737 5216.22
681.692 5066.47
681.648 5047.4
681.603 4999.6
681.559 5022.33
681.514 5005.88
681.47 5153.93
681.425 5059.15
681.381 5277.61
681.337 5081.07
681.292 5221.18
681.248 5160.37
681.203 5070.88
681.159 5294.39
681.114 5233.59
681.07 5167.6
681.025 5218.93
680.981 5098.22
680.936 5042.71
680.892 5242.56
680.847 5101.06
680.803 5204.46
680.758 5188.03
680.714 5257.53
680.669 5243.7
680.625 5151.77
680.58 5057.27
680.536 5074.7
680.491 5164.99
680.447 5315.08
680.402 5147.78
680.358 5196.39
680.313 5281.4
680.269 5241.58
680.224 5279.76
680.18 5346.52
680.135 5226.14
680.091 5240.92
680.046 5260.89
680.002 5265.27
679.957 5272.24
679.913 5188.33
679.868 5114.83
679.824 5417.76
679.779 5172.93
679.735 5301.89
679.69 5345.18
679.646 5308.02
679.601 5273.48
679.557 5371.21
679.512 5183.67
679.468 5312.5
679.423 5358.34
679.379 5271.97
679.334 5087.16
679.29 5332.52
679.245 5308.38
679.201 5201.35
679.156 5172.05
679.111 5373.23
679.067 5108.3
679.022 5218.82
678.978 5254.25
678.933 5248.26
678.889 5376.82
678.844 5143.14
678.8 5261.33
678.755 5252.75
678.711 5282.97
678.666 5067.55
678.622 5167.58
678.577 5107.33
678.532 5101.36
678.488 5097.99
678.443 5128.2
678.399 5137.73
678.354 5196.33
678.31 5146.46
678.265 5150.82
678.221 5157.77
678.176 5076.95
678.132 4993.58
678.087 5168.26
678.042 5133.92
677.998 5125.38
677.953 5140.06
677.909 5118.63
677.864 4880.63
677.82 5127.34
677.775 4879.11
677.731 4955.66
677.686 5045.07
677.641 5057.17
677.597 4963.65
677.552 4924.25
677.508 5029.06
677.463 4933.01
677.419 4981.15
677.374 5067.89
677.329 5041.36
677.285 4868.19
677.24 4972.91
677.196 4912.97
677.151 4961.07
677.107 4991.15
677.062 4805.26
677.017 4693.98
676.973 4832.04
676.928 4833.85
676.884 4768.86
676.839 4842.62
676.795 4939.48
676.75 4787.18
676.705 4727.37
676.661 4890.95
676.616 4823.45
676.572 4732.86
676.527 4821.94
676.482 4777.57
676.438 4889.71
676.393 4668.35
676.349 4762.51
676.304 4679.72
676.259 4663.6
676.215 4688.51
676.17 4664.71
676.126 4581.98
676.081 4742.69
676.036 4744.51
675.992 4661.8
675.947 4689.25
675.903 4657.79
675.858 4631.46
675.813 4612.82
675.769 4724.71
675.724 4649.76
675.68 4641.36
675.635 4699.48
675.59 4703.86
675.546 4582.92
675.501 4669.15
675.456 4627.51
675.412 4435.07
675.367 4523.83
675.323 4679.01
675.278 4501.98
675.233 4567.7
675.189 4521.01
675.144 4635.23
675.1 4665.14
675.055 4442.3
675.01 4377.79
674.966 4517.48
674.921 4562.71
674.876 4607.92
674.832 4551.08
674.787 4478.95
674.742 4526.7
674.698 4475.0
674.653 4594.12
674.609 4445.56
674.564 4409.19
674.519 4360.08
674.475 4428.19
674.43 4384.19
674.385 4434.45
674.341 4372.63
674.296 4392.32
674.251 4381.45
674.207 4383.31
674.162 4433.53
674.117 4389.57
674.073 4411.79
674.028 4324.61
673.984 4285.78
673.939 4346.14
673.894 4271.72
673.85 4324.44
673.805 4453.4
673.76 4396.79
673.716 4335.12
673.671 4268.38
673.626 4308.36
673.582 4340.71
673.537 4345.11
673.492 4336.81
673.448 4287.89
673.403 4238.99
673.358 4230.715
673.314 4222.44
673.269 4125.37
673.224 4203.36
673.18 4192.56
673.135 4331.38
673.09 4312.95
673.046 4213.41
673.001 4184.87
672.956 4313.46
672.912 4145.55
672.867 4208.24
672.822 4009.99
672.778 4222.12
672.733 4251.84
672.688 4154.96
672.643 4098.62
672.599 4267.56
672.554 4165.66
672.509 4043.55
672.465 4217.49
672.42 4108.06
672.375 4173.17
672.331 4233.21
672.286 4171.86
672.241 4120.65
672.197 4211.0
672.152 4139.58
672.107 3972.16
672.063 4100.38
672.018 4082.06
671.973 4066.26
671.928 4047.95
671.884 4125.59
671.839 4135.04
671.794 4078.86
671.75 4100.93
671.705 4049.83
671.66 3963.41
671.615 4114.14
671.571 4017.66
671.526 4072.5
671.481 4079.43
671.437 4131.73
671.392 4136.12
671.347 4067.43
671.302 4011.36
671.258 4010.73
671.213 4143.6
671.168 4037.17
671.124 4021.43
671.079 3935.2
671.034 3932.06
670.989 4102.6
670.945 4003.81
670.9 4151.63
670.855 4005.07
670.811 4105.05
670.766 4016.38
670.721 4076.1
670.676 4015.12
670.632 3961.7
670.587 4061.62
670.542 3980.56
670.497 4007.58
670.453 4006.95
670.408 4028.93
670.363 4116.19
670.318 4022.64
670.274 3939.16
670.229 3976.19
670.184 4000.66
670.14 4025.13
670.095 3863.92
670.05 4048.95
670.005 4043.3
669.961 4037.65
669.916 4072.12
669.871 4006.3
669.826 3945.51
669.782 3997.52
669.737 3906.68
669.692 3911.07
669.647 3950.54
669.603 3992.5
669.558 3879.18
669.513 4043.83
669.468 3895.48
669.423 3909.89
669.379 3886.75
669.334 3991.24
669.289 4015.63
669.244 3884.92
669.2 3894.31
669.155 3916.21
669.11 3965.6
669.065 3992.47
669.021 4074.33
668.976 4011.21
668.931 3960.61
668.886 4019.94
668.842 4051.79
668.797 3936.26
668.752 4070.49
668.707 4134.77
668.662 4126.63
668.618 3983.7
668.573 4055.45
668.528 3979.95
668.483 3899.49
668.439 3938.79
668.394 3900.76
668.349 3989.92
668.304 3956.88
668.259 3991.15
668.215 3905.78
668.17 3979.93
668.125 4054.05
668.08 3861.58
668.035 3960.61
667.991 3885.27
667.946 3799.99
667.901 3816.82
667.856 3890.9
667.811 3979.9
667.767 3929.5
667.722 3948.78
667.677 3948.16
667.632 3905.25
667.587 4046.4
667.543 3889.1
667.498 3980.48
667.453 3833.19
667.408 4016.51
667.363 3891.62
667.319 3928.28
667.274 3935.11
667.229 3909.65
667.184 3849.43
667.139 3786.75
667.095 3945.05
667.05 3934.5
667.005 3921.47
666.96 3958.07
666.915 3910.3
666.87 3902.25
666.826 3968.6
666.781 3749.74
666.736 3925.2
666.691 3976.64
666.646 3866.94
666.602 3834.12
666.557 3957.41
666.512 3877.5
666.467 3886.8
666.422 3915.91
666.377 3828.62
666.333 3959.24
666.288 3839.79
666.243 3883.74
666.198 3850.95
666.153 3823.12
666.108 3921.48
666.064 3906.02
666.019 3888.09
665.974 3877.59
665.929 3847.3
665.884 3913.44
665.839 3944.96
665.794 3867.72
665.75 3874.53
665.705 3854.15
665.66 3910.36
665.615 3860.34
665.57 3926.41
665.525 3891.22
665.481 3917.76
665.436 3771.51
665.391 3830.15
665.346 3814.74
665.301 3791.93
665.256 3855.47
665.211 3810.46
665.167 3910.97
665.122 3861.04
665.077 3700.19
665.032 3914.04
664.987 4036.64
664.942 3853.67
664.897 3781.62
664.853 3830.28
664.808 3817.36
664.763 3858.62
664.718 3877.71
664.673 3724.47
664.628 3822.33
664.583 3875.87
664.538 3821.12
664.494 3795.92
664.449 3881.41
664.404 3947.2
664.359 3794.12
664.314 4012.33
664.269 3829.79
664.224 3831.64
664.179 3924.42
664.135 3867.29
664.09 3903.52
664.045 3856.24
664.0 3907.2
663.955 3808.36
663.91 3851.95
663.865 3853.8
663.82 3838.46
663.775 3886.93
663.731 3775.91
663.686 3819.47
663.641 3912.07
663.596 3862.4
663.551 3930.44
663.506 3851.37
663.461 3794.38
663.416 3739.87
663.371 3668.21
663.326 3780.33
663.282 3897.32
663.237 3906.49
663.192 3849.55
663.147 3826.91
663.102 3750.41
663.057 3735.13
663.012 3803.06
662.967 3800.01
662.922 3855.68
662.877 3815.93
662.832 3881.36
662.788 3753.59
662.743 3789.67
662.698 3718.18
662.653 3751.81
662.608 3690.12
662.563 3811.7
662.518 3830.64
662.473 3766.53
662.428 3707.32
662.383 3848.36
662.338 3750.09
662.293 3739.73
662.248 3685.44
662.204 3767.83
662.159 3713.55
662.114 3827.62
662.069 3678.23
662.024 3821.53
661.979 3752.65
661.934 3791.06
661.889 3710.02
661.844 3724.05
661.799 3667.42
661.754 3786.22
661.709 3736.9
661.664 3875.14
661.619 3735.71
661.574 3834.95
661.53 3827.04
661.485 3843.47
661.44 3782.02
661.395 3696.25
661.35 3792.98
661.305 3802.11
661.26 3794.21
661.215 3754.7
661.17 3814.89
661.125 3658.7
661.08 3662.98
661.035 3808.21
660.99 3788.17
660.945 3838.58
660.9 3789.39
660.855 3749.93
660.81 3676.49
660.765 3676.49
660.72 3676.49
660.675 3728.13
660.63 3783.36
660.586 3807.02
660.541 3663.28
660.496 3677.25
660.451 3664.54
660.406 3780.35
660.361 3787.02
660.316 3648.25
660.271 3671.91
660.226 3632.55
660.181 3627.13
660.136 3767.06
660.091 3657.46
660.046 3785.23
660.001 3733.78
659.956 3728.35
659.911 3672.08
659.866 3746.52
659.821 3745.93
659.776 3696.94
659.731 3856.01
659.686 3562.74
659.641 3639.56
659.596 3684.92
659.551 3672.25
659.506 3695.83
659.461 3738.75
659.416 3713.99
659.371 3976.74
659.326 3842.0649999999996
659.281 3707.39
659.236 3639.18
659.191 3727.94
659.146 3715.27
659.101 3651.93
659.056 3605.49
659.011 3771.41
658.966 3575.39
658.921 3847.4
658.876 3620.08
658.831 3665.32
658.786 3652.68
658.741 3767.81
658.696 3644.29
658.651 3718.41
658.606 3640.72
658.561 3628.09
658.516 3560.07
658.471 3629.34
658.426 3674.52
658.381 3664.3
658.336 3750.38
658.291 3809.95
658.246 3636.08
658.201 3584.97
658.156 3661.38
658.111 3660.8
658.066 3604.9
658.021 3616.35
657.976 3586.93
657.931 3653.66
657.886 3691.53
657.841 3563.59
657.796 3591.85
657.751 3788.26
657.706 3689.18
657.661 3724.61
657.616 3579.95
657.571 3663.41
657.526 3686.82
657.481 3640.64
657.435 3659.25
657.39 3577.1
657.345 3646.09
657.3 3688.68
657.255 3649.73
657.21 3685.11
657.165 3545.48
657.12 3624.01
657.075 3513.2
657.03 3644.42
656.985 3655.82
656.94 3691.16
656.895 3647.47
656.85 3680.41
656.805 3653.48
656.76 3724.71
656.715 3511.11
656.67 3678.06
656.625 3694.22
656.58 3631.43
656.535 3535.18
656.49 3668.54
656.444 3622.52
656.399 3574.13
656.354 3595.07
656.309 3527.58
656.264 3574.8
656.219 3574.23
656.174 3652.49
656.129 3608.92
656.084 3488.94
656.039 3648.36
655.994 3635.84
655.949 3604.23
655.904 3496.26
655.859 3579.21
655.814 3588.18
655.768 3675.87
655.723 3482.1
655.678 3591.23
655.633 3690.8
655.588 3523.34
655.543 3689.62
655.498 3588.94
655.453 3652.7
655.408 3549.67
655.363 3530.05
655.318 3512.81
655.273 3547.97
655.228 3566.45
655.182 3661.1
655.137 3498.67
655.092 3538.56
655.047 3557.03
655.002 3563.6
654.957 3608.22
654.912 3474.47
654.867 3526.22
654.822 3535.17
654.777 3548.86
654.732 3536.41
654.686 3509.71
654.641 3561.42
654.596 3506.21
654.551 3593.53
654.506 3471.84
654.461 3568.63
654.416 3589.43
654.371 3572.24
654.326 3559.8
654.281 3423.98
654.235 3551.54
654.19 3579.44
654.145 3588.35
654.1 3564.07
654.055 3565.87
654.01 3562.92
653.965 3595.54
653.92 3526.24
653.875 3532.78
653.829 3589.07
653.784 3619.29
653.739 3500.3
653.694 3402.65
653.649 3586.77
653.604 3678.52
653.559 3545.39
653.514 3554.29
653.468 3593.94
653.423 3598.09
653.378 3474.52
653.333 3592.21
653.288 3478.14
653.243 3449.21
653.198 3415.57
653.153 3467.01
653.107 3612.96
653.062 3421.01
653.017 3512.59
652.972 3504.94
652.927 3568.14
652.882 3499.1
652.837 3430.07
652.791 3443.69
652.746 3443.13
652.701 3555.84
652.656 3616.61
652.611 3476.86
652.566 3575.35
652.521 3466.31
652.475 3510.55
652.43 3458.13
652.385 3471.71
652.34 3468.8
652.295 3498.87
652.25 3507.74
652.205 3490.68
652.159 3518.38
652.114 3428.34
652.069 3500.78
652.024 3471.97
651.979 3414.93
651.934 3496.74
651.888 3531.47
651.843 3434.45
651.798 3605.6
651.753 3435.7
651.708 3557.41
651.663 3427.54
651.617 3469.3
651.572 3567.45
651.527 3531.63
651.482 3502.87
651.437 3521.1
651.392 3400.76
651.346 3454.22
651.301 3484.19
651.256 3460.15
651.211 3415.0
651.166 3459.04
651.121 3395.13
651.075 3558.8
651.03 3546.5
650.985 3499.03
650.94 3578.19
650.895 3535.42
650.85 3436.4
650.804 3555.37
650.759 3376.71
650.714 3507.37
650.669 3497.44
650.624 3454.71
650.578 3519.73
650.533 3472.34
650.488 3560.74
650.443 3438.45
650.398 3473.0
650.352 3329.71
650.307 3483.58
650.262 3384.78
650.217 3463.75
650.172 3470.21
650.126 3549.14
650.081 3415.32
650.036 3449.83
649.991 3453.95
649.946 3518.82
649.9 3441.16
649.855 3594.77
649.81 3433.05
649.765 3481.53
649.72 3492.64
649.674 3531.76
649.629 3458.84
649.584 3451.29
649.539 3553.39
649.494 3415.18
649.448 3489.27
649.403 3498.04
649.358 3565.09
649.313 3436.3
649.268 3524.32
649.222 3467.82
649.177 3457.94
649.132 3562.22
649.087 3482.45
649.041 3439.96
648.996 3430.09
648.951 3424.88
648.906 3340.53
648.861 3575.07
648.815 3507.01
648.77 3501.79
648.725 3477.96
648.68 3358.77
648.634 3544.28
648.589 3462.33
648.544 3429.22
648.499 3461.21
648.453 3486.22
648.408 3520.51
648.363 3471.15
648.318 3386.96
648.273 3458.42
648.227 3471.79
648.182 3503.74
648.137 3431.21
648.092 3516.54
648.046 3432.42
648.001 3499.16
647.956 3484.68
647.911 3521.23
647.865 3420.93
647.82 3552.56
647.775 3496.34
647.73 3493.46
647.684 3472.03
647.639 3346.33
647.594 3487.13
647.549 3361.47
647.503 3490.64
647.458 3476.18
647.413 3424.68
647.368 3382.45
647.322 3435.14
647.277 3517.91
647.232 3390.07
647.187 3461.24
647.141 3363.53
647.096 3427.74
647.051 3501.19
647.005 3482.13
646.96 3426.08
646.915 3455.58
646.87 3503.55
646.824 3493.74
646.779 3479.32
646.734 3561.91
646.689 3411.22
646.643 3394.5
646.598 3518.63
646.553 3460.35
646.508 3535.95
646.462 3486.92
646.417 3391.76
646.372 3455.8
646.326 3439.1
646.281 3477.75
646.236 3518.69
646.191 3405.15
646.145 3457.62
646.1 3443.23
646.055 3442.68
646.009 3555.01
645.964 3517.58
645.919 3397.25
645.874 3456.57
645.828 3561.92
645.783 3503.8
645.738 3484.81
645.692 3481.95
645.647 3416.96
645.602 3437.11
645.556 3546.97
645.511 3452.1
645.466 3453.84
645.421 3359.02
645.375 3413.64
645.33 3367.12
645.285 3469.99
645.239 3430.37
645.194 3367.78
645.149 3463.71
645.103 3483.82
645.058 3474.07
645.013 3395.45
644.968 3399.49
644.922 3488.44
644.877 3501.65
644.832 3462.08
644.786 3392.7
644.741 3428.85
644.696 3453.52
644.65 3432.32
644.605 3424.89
644.56 3442.67
644.514 3403.15
644.469 3427.81
644.424 3415.8
644.378 3552.68
644.333 3364.3
644.288 3404.98
644.242 3486.84
644.197 3431.34
644.152 3364.41
644.106 3462.26
644.061 3411.37
644.016 3442.84
643.97 3359.94
643.925 3320.52
643.88 3528.05
643.834 3458.9
643.789 3513.19
643.744 3489.77
643.698 3352.1
643.653 3438.38
643.608 3389.85
643.562 3409.85
643.517 3473.24
643.472 3486.38
643.426 3515.49
643.381 3476.11
643.336 3423.06
643.29 3372.31
643.245 3444.77
643.2 3435.08
643.154 3443.65
643.109 3547.98
643.064 3367.29
643.018 3423.73
642.973 3543.97
642.928 3420.34
642.882 3542.82
642.837 3448.85
642.792 3418.68
642.746 3440.9
642.701 3447.17
642.655 3451.16
642.61 3473.36
642.565 3422.73
642.519 3435.83
642.474 3460.29
642.429 3400.59
642.383 3491.01
642.338 3522.28
642.293 3410.3
642.247 3464.3
642.202 3395.56
642.156 3529.08
642.111 3508.05
642.066 3527.93
642.02 3520.54
641.975 3467.74
641.93 3444.47
641.884 3484.77
641.839 3400.22
641.793 3565.34
641.748 3489.88
641.703 3516.54
641.657 3418.43
641.612 3467.77
641.567 3394.64
641.521 3464.37
641.476 3370.86
641.43 3508.57
641.385 3410.56
641.34 3443.99
641.294 3452.49
641.249 3460.99
641.203 3367.57
641.158 3459.86
641.113 3488.73
641.067 3583.23
641.022 3528.33
640.977 3468.93
640.931 3389.17
640.886 3370.53
640.84 3476.28
640.795 3346.81
640.75 3459.32
640.704 3467.8
640.659 3555.38
640.613 3532.21
640.568 3570.04
640.523 3515.24
640.477 3492.08
640.432 3419.24
640.386 3402.88
640.341 3445.22
640.295 3516.89
640.25 3536.63
640.205 3346.5
640.159 3549.02
640.114 3437.9
640.068 3505.01
640.023 3531.5
639.978 3499.36
639.932 3512.31
639.887 3523.01
639.841 3513.42
639.796 3501.58
639.751 3557.33
639.705 3423.85
639.66 3450.32
639.614 3454.26
639.569 3437.94
639.523 3392.36
639.478 3472.83
639.433 3492.52
639.387 3512.2
639.342 3482.38
639.296 3459.32
639.251 3456.5
639.205 3453.69
639.16 3540.81
639.115 3418.85
639.069 3535.16
639.024 3514.36
638.978 3500.3
638.933 3533.43
638.887 3490.18
638.842 3507.57
638.796 3547.41
638.751 3510.92
638.706 3519.32
638.66 3440.2
638.615 3408.23
638.569 3452.54
638.524 3555.15
638.478 3543.36
638.433 3430.67
638.387 3376.3
638.342 3514.73
638.297 3563.46
638.251 3385.85
638.206 3508.52
638.16 3463.15
638.115 3471.54
638.069 3533.68
638.024 3604.74
637.978 3550.43
637.933 3511.8
637.887 3453.04
637.842 3503.94
637.797 3559.29
637.751 3467.01
637.706 3560.37
637.66 3501.65
637.615 3503.31
637.569 3507.21
637.524 3455.23
637.478 3497.12
637.433 3572.52
637.387 3520.55
637.342 3631.65
637.296 3546.2
637.251 3496.5
637.205 3522.72
637.16 3504.28
637.115 3534.95
637.069 3527.68
637.024 3498.1
636.978 3490.84
636.933 3510.34
636.887 3454.02
636.842 3500.27
636.796 3475.18
636.751 3465.7
636.705 3576.55
636.66 3564.82
636.614 3533.05
636.569 3588.15
636.523 3592.02
636.478 3529.09
636.432 3586.39
636.387 3706.0
636.341 3493.97
636.296 3422.2
636.25 3570.7
636.205 3503.38
636.159 3507.25
636.114 3535.59
636.068 3541.68
636.023 3514.42
635.977 3589.41
635.932 3526.6
635.886 3539.36
635.841 3474.36
635.795 3551.52
635.75 3613.12
635.704 3501.51
635.659 3643.02
635.613 3549.2
635.568 3652.92
635.522 3592.41
635.477 3596.26
635.431 3679.96
635.386 3546.29
635.34 3601.14
635.295 3585.03
635.249 3606.61
635.204 3619.32
635.158 3538.95
635.113 3580.47
635.067 3555.51
635.022 3534.99
634.976 3503.41
634.931 3531.62
634.885 3663.87
634.84 3612.36
634.794 3589.64
634.748 3553.64
634.703 3621.64
634.657 3665.29
634.612 3589.49
634.566 3701.68
634.521 3521.99
634.475 3614.25
634.43 3571.66
634.384 3551.19
634.339 3583.75
634.293 3561.07
634.248 3474.34
634.202 3584.19
634.157 3691.8
634.111 3547.69
634.065 3540.49
634.02 3577.42
633.974 3658.48
633.929 3620.37
633.883 3584.48
633.838 3480.24
633.792 3534.79
633.747 3617.99
633.701 3588.74
633.656 3581.54
633.61 3607.4
633.565 3593.58
633.519 3577.57
633.473 3625.44
633.428 3629.25
633.382 3589.02
633.337 3595.03
633.291 3568.03
633.246 3527.83
633.2 3621.87
633.155 3561.87
633.109 3680.07
633.063 3527.71
633.018 3555.72
632.972 3537.54
632.927 3578.73
632.881 3729.79
632.836 3575.35
632.79 3662.65
632.744 3571.98
632.699 3588.96
632.653 3647.67
632.608 3684.39
632.562 3688.18
632.517 3599.77
632.471 3588.21
632.425 3622.72
632.38 3635.29
632.334 3546.95
632.289 3583.65
632.243 3604.99
632.198 3672.36
632.152 3564.34
632.106 3675.54
632.061 3690.27
632.015 3639.27
631.97 3636.48
631.924 3541.7
631.879 3639.66
631.833 3538.34
631.787 3555.27
631.742 3672.88
631.696 3643.83
631.651 3531.63
631.605 3557.31
631.559 3637.65
631.514 3669.86
631.468 3664.88
631.423 3607.43
631.377 3665.86
631.331 3617.17
631.286 3679.95
631.24 3567.91
631.195 3569.51
631.149 3671.58
631.103 3607.64
631.058 3633.25
631.012 3643.56
630.967 3647.33
630.921 3585.62
630.875 3609.03
630.83 3708.79
630.784 3603.48
630.739 3666.13
630.693 3613.19
630.647 3662.74
630.602 3603.28
630.556 3567.81
630.511 3682.72
630.465 3653.79
630.419 3587.83
630.374 3700.5
630.328 3573.58
630.283 3653.55
630.237 3644.24
630.191 3628.41
630.146 3566.87
630.1 3648.97
630.054 3711.45
630.009 3619.48
629.963 3608.01
629.918 3609.59
629.872 3722.05
629.826 3619.27
629.781 3731.69
629.735 3620.25
629.689 3717.42
629.644 3708.11
629.598 3635.83
629.553 3685.17
629.507 3665.02
629.461 3592.78
629.416 3650.79
629.37 3537.34
629.324 3636.56
629.279 3685.86
629.233 3613.67
629.187 3606.57
629.142 3571.28
629.096 3596.7
629.051 3667.64
629.005 3619.36
628.959 3653.43
628.914 3551.0
628.868 3667.38
628.822 3497.84
628.777 3642.35
628.731 3613.6
628.685 3671.45
628.64 3536.65
628.594 3737.32
628.548 3684.78
628.503 3634.41
628.457 3581.9
628.411 3661.32
628.366 3695.31
628.32 3588.77
628.274 3754.61
628.229 3680.51
628.183 3679.9
628.138 3711.7
628.092 3540.44
628.046 3621.92
628.001 3653.71
627.955 3575.38
627.909 3617.96
627.864 3673.48
627.818 3493.76
627.772 3706.79
627.727 3704.02
627.681 3744.38
627.635 3724.35
627.59 3592.21
627.544 3623.95
627.498 3653.53
627.453 3620.6
627.407 3632.93
627.361 3643.1
627.315 3664.03
627.27 3581.58
627.224 3617.6
627.178 3591.16
627.133 3581.96
627.087 3650.24
627.041 3608.74
626.996 3651.18
626.95 3564.52
626.904 3626.31
626.859 3636.46
626.813 3635.86
626.767 3544.96
626.722 3632.5
626.676 3638.35
626.63 3639.89
626.585 3581.28
626.539 3600.02
626.493 3706.8
626.447 3691.16
626.402 3621.84
626.356 3711.4
626.31 3652.84
626.265 3579.27
626.219 3567.95
626.173 3605.97
626.128 3487.41
626.082 3696.98
626.036 3559.15
625.99 3601.43
625.945 3641.56
625.899 3703.1
625.853 3629.64
625.808 3637.6
625.762 3557.75
625.716 3574.29
625.671 3708.59
625.625 3603.08
625.579 3653.85
625.533 3514.13
625.488 3532.81
625.442 3613.52
625.396 3636.45
625.351 3582.38
625.305 3648.07
625.259 3653.88
625.213 3473.71
625.168 3654.8
625.122 3645.65
625.076 3657.86
625.031 3582.48
624.985 3581.89
624.939 3566.34
624.893 3819.84
624.848 3607.86
624.802 3658.48
624.756 3602.39
624.71 3533.51
624.665 3675.86
624.619 3594.19
624.573 3589.33
624.528 3558.88
624.482 3530.57
624.436 3623.78
624.39 3603.99
624.345 3611.92
624.299 3560.18
624.253 3621.37
624.207 3612.24
624.162 3581.83
624.116 3634.46
624.07 3572.12
624.024 3533.22
623.979 3468.78
623.933 3600.13
623.887 3665.48
623.841 3560.64
623.796 3636.61
623.75 3516.93
623.704 3626.89
623.658 3692.19
623.613 3585.31
623.567 3584.71
623.521 3473.64
623.475 3577.14
623.43 3676.37
623.384 3588.69
623.338 3530.77
623.292 3570.52
623.247 3618.74
623.201 3628.74
623.155 3642.99
623.109 3580.87
623.064 3648.14
623.018 3533.02
622.972 3532.43
622.926 3580.6
622.881 3669.02
622.835 3492.52
622.789 3559.74
622.743 3521.01
622.698 3607.27
622.652 3657.5
622.606 3667.47
622.56 3607.58
622.514 3543.48
622.469 3583.1
622.423 3669.26
622.377 3554.4
622.331 3532.65
622.286 3620.89
622.24 3668.93
622.194 3566.83
622.148 3642.34
622.102 3578.32
622.057 3613.65
622.011 3587.69
621.965 3555.4
621.919 3548.47
621.874 3571.11
621.828 3638.08
621.782 3559.36
621.736 3575.66
621.69 3577.17
621.645 3468.96
621.599 3588.63
621.553 3577.49
621.507 3549.47
621.461 3504.6
621.416 3605.21
621.37 3526.62
621.324 3559.75
621.278 3449.58
621.232 3550.13
621.187 3697.0
621.141 3633.19
621.095 3577.83
621.049 3570.92
621.003 3511.38
620.958 3519.21
620.912 3556.5
620.866 3539.08
620.82 3612.12
620.774 3558.93
620.729 3568.85
620.683 3534.61
620.637 3588.68
620.591 3628.02
620.545 3492.91
620.5 3496.52
620.454 3628.3
620.408 3657.1
620.362 3534.67
620.316 3607.58
620.271 3600.68
620.225 3526.6
620.179 3624.66
620.133 3556.9
620.087 3556.31
620.041 3528.44
619.996 3420.88
619.95 3627.92
619.904 3453.28
619.858 3601.55
619.812 3523.39
619.766 3518.61
619.721 3553.64
619.675 3550.95
619.629 3552.45
619.583 3409.45
619.537 3530.32
619.492 3575.79
619.446 3414.02
619.4 3453.21
619.354 3557.26
619.308 3529.46
619.262 3499.59
619.217 3480.18
619.171 3492.14
619.125 3468.56
619.079 3566.22
619.033 3534.28
618.987 3552.49
618.941 3466.23
618.896 3557.57
618.85 3525.64
618.804 3531.32
618.758 3536.99
618.712 3415.31
618.666 3466.92
618.621 3549.82
618.575 3438.64
618.529 3556.97
618.483 3450.0
618.437 3445.25
618.391 3498.88
618.345 3425.33
618.3 3472.7
618.254 3457.53
618.208 3565.3
618.162 3458.45
618.116 3368.3
618.07 3396.89
618.024 3487.94
617.979 3445.72
617.933 3459.71
617.887 3444.56
617.841 3410.69
617.795 3514.15
617.749 3459.47
617.703 3404.81
617.658 3381.37
617.612 3515.95
617.566 3448.83
617.52 3381.74
617.474 3464.3
617.428 3484.5
617.382 3504.69
617.336 3466.71
617.291 3412.13
617.245 3467.62
617.199 3431.75
617.153 3537.03
617.107 3395.31
617.061 3407.19
617.015 3560.15
616.969 3420.57
616.924 3461.47
616.878 3498.22
616.832 3524.58
616.786 3546.79
616.74 3467.44
616.694 3466.85
616.648 3437.27
616.602 3463.62
616.556 3521.03
616.511 3553.57
616.465 3426.67
616.419 3395.04
616.373 3452.43
616.327 3460.13
616.281 3422.3
616.235 3479.65
616.189 3423.22
616.143 3422.64
616.098 3484.1
616.052 3464.9
616.006 3505.66
615.96 3405.87
615.914 3438.36
615.868 3520.42
615.822 3478.52
615.776 3486.19
615.73 3448.44
615.684 3462.31
615.639 3463.79
615.593 3438.44
615.547 3336.75
615.501 3528.06
615.455 3430.51
615.409 3438.19
615.363 3476.79
615.317 3556.61
615.271 3541.58
615.225 3444.12
615.179 3476.51
615.134 3434.71
615.088 3450.62
615.042 3406.78
614.996 3443.28
614.95 3465.34
614.904 3357.71
614.858 3445.65
614.812 3498.58
614.766 3415.68
614.72 3373.96
614.674 3463.9
614.628 3514.73
614.582 3462.73
614.537 3449.81
614.491 3447.18
614.445 3479.48
614.399 3448.07
614.353 3422.83
614.307 3401.71
614.261 3394.98
614.215 3451.9
614.169 3363.04
614.123 3481.53
614.077 3417.32
614.031 3373.65
613.985 3469.51
613.939 3434.05
613.893 3472.44
613.848 3467.76
613.802 3477.42
613.756 3456.33
613.71 3404.51
613.664 3395.74
613.618 3468.93
613.572 3464.25
613.526 3443.18
613.48 3471.27
613.434 3456.35
613.388 3384.11
613.342 3518.64
613.296 3538.51
613.25 3460.15
613.204 3426.83
613.158 3458.98
613.112 3464.54
613.066 3463.95
613.02 3412.25
612.975 3468.91
612.929 3545.99
612.883 3520.87
612.837 3495.76
612.791 3460.44
612.745 3584.44
612.699 3493.99
612.653 3524.02
612.607 3505.05
612.561 3492.22
612.515 3577.33
612.469 3660.38
612.423 3692.4
612.377 3557.16
612.331 3689.12
612.285 3702.77
612.239 3559.44
612.193 3685.21
612.147 3654.02
612.101 3698.22
612.055 3559.07
612.009 3507.54
611.963 3539.53
611.917 3433.05
611.871 3469.12
611.825 3397.29
611.779 3469.98
611.733 3483.63
611.687 3487.11
611.641 3372.61
611.595 3463.56
611.549 3446.71
611.503 3391.23
611.457 3366.26
611.411 3469.35
611.365 3434.21
611.32 3366.58
611.274 3361.95
611.228 3471.06
611.182 3431.89
611.136 3362.27
611.09 3274.41
611.044 3346.93
610.998 3378.83
610.952 3443.19
610.906 3331.03
610.86 3298.01
610.814 3402.9
610.768 3311.09
610.722 3363.23
610.676 3413.34
610.63 3339.8
610.584 3292.63
610.538 3261.69
610.492 3390.77
610.446 3337.54
610.4 3276.23
610.354 3289.84
610.308 3327.74
610.262 3317.06
610.216 3338.76
610.17 3307.84
610.124 3297.17
610.078 3272.34
610.031 3283.92
609.985 3366.25
609.939 3391.96
609.893 3314.58
609.847 3356.46
609.801 3323.56
609.755 3357.34
609.709 3350.71
609.663 3277.44
609.617 3383.89
609.571 3308.63
609.525 3328.25
609.479 3303.47
609.433 3337.21
609.387 3288.23
609.341 3340.11
609.295 3387.94
609.249 3343.01
609.203 3354.54
609.157 3297.53
609.111 3272.79
609.065 3340.74
609.019 3344.2
608.973 3311.4
608.927 3270.56
608.881 3253.9
608.835 3301.66
608.789 3282.99
608.743 3298.53
608.697 3255.71
608.651 3289.36
608.605 3351.16
608.559 3348.58
608.513 3327.9
608.467 3359.5
608.421 3266.46
608.374 3302.09
608.328 3295.5
608.282 3321.05
608.236 3274.29
608.19 3287.79
608.144 3239.04
608.098 3391.07
608.052 3318.23
608.006 3309.64
607.96 3252.89
607.914 3324.56
607.868 3269.83
607.822 3309.39
607.776 3350.94
607.73 3274.18
607.684 3285.65
607.638 3277.08
607.592 3264.49
607.546 3261.93
607.5 3293.43
607.453 3314.9
607.407 3260.27
607.361 3301.76
607.315 3351.25
607.269 3372.69
607.223 3226.03
607.177 3291.51
607.131 3228.93
607.085 3204.38
607.039 3269.83
606.993 3227.28
606.947 3278.71
606.901 3258.16
606.855 3193.66
606.809 3326.99
606.762 3288.46
606.716 3299.89
606.67 3325.29
606.624 3242.85
606.578 3308.18
606.532 3297.64
606.486 3293.09
606.44 3284.54
606.394 3246.08
606.348 3185.68
606.302 3223.03
606.256 3268.35
606.209 3289.72
606.163 3245.3
606.117 3366.33
606.071 3210.32
606.025 3442.88
605.979 3239.1
605.933 3272.41
605.887 3261.9
605.841 3223.51
605.795 3254.81
605.749 3292.07
605.703 3261.66
605.656 3197.43
605.61 3212.8
605.564 3232.15
605.518 3265.4
605.472 3288.7
605.426 3302.06
605.38 3301.49
605.334 3227.4
605.288 3240.76
605.242 3212.39
605.195 3233.69
605.149 3207.32
605.103 3224.65
605.057 3273.73
605.011 3277.14
604.965 3242.84
604.919 3170.85
604.873 3259.59
604.827 3263.0
604.78 3310.04
604.734 3196.45
604.688 3223.66
604.642 3274.64
604.596 3214.63
604.55 3285.41
604.504 3144.18
604.458 3258.54
604.412 3291.65
604.365 3253.46
604.319 3262.81
604.273 3177.13
604.227 3239.92
604.181 3302.69
604.135 3199.24
604.089 3169.02
604.043 3194.19
603.996 3300.43
603.95 3270.21
603.904 3139.18
603.858 3237.47
603.812 3288.29
603.766 3264.02
603.72 3206.17
603.674 3217.47
603.627 3248.52
603.581 3145.29
603.535 3176.34
603.489 3276.46
603.443 3258.14
603.397 3237.85
603.351 3268.86
603.305 3199.26
603.258 3246.05
603.212 3255.35
603.166 3313.93
603.12 3240.44
603.074 3224.11
603.028 3194.01
602.982 3240.74
602.935 3198.82
602.889 3176.61
602.843 3130.78
602.797 3114.49
602.751 3249.78
602.705 3231.51
602.659 3240.79
602.612 3285.49
602.566 3192.47
602.52 3221.43
602.474 3248.4
602.428 3220.32
602.382 3241.39
602.335 3286.04
602.289 3173.47
602.243 3178.82
602.197 3193.99
602.151 3222.9
602.105 3245.91
602.059 3164.86
602.012 3295.84
601.966 3204.99
601.92 3220.14
601.874 3211.74
601.828 3191.57
601.782 3198.87
601.735 3215.97
601.689 3252.67
601.643 3267.79
601.597 3237.83
601.551 3135.38
601.505 3223.0
601.458 3118.63
601.412 3114.17
601.366 3240.93
601.32 3171.84
601.274 3198.7
601.228 3188.37
601.181 3250.44
601.135 3165.75
601.089 3118.26
601.043 3162.71
600.997 3156.3
600.95 3224.19
600.904 3215.82
600.858 3193.76
600.812 3085.73
600.766 3202.44
600.72 3201.88
600.673 3107.58
600.627 3204.69
600.581 3147.52
600.535 3141.12
600.489 3148.39
600.442 3149.8
600.396 3172.67
600.35 3168.22
600.304 3132.57
600.258 3217.84
600.211 3207.53
600.165 3181.64
600.119 3153.8
600.073 3161.06
600.027 3131.28
599.98 3103.47
599.934 3136.05
599.888 3143.3
599.842 3140.81
599.796 3136.38
599.749 3213.7
599.703 3141.14
599.657 3123.08
599.611 3132.27
599.565 3089.92
599.518 3047.57
599.472 3142.32
599.426 3091.23
599.38 3114.03
599.334 3158.19
599.287 3105.18
599.241 3203.73
599.195 3158.5
599.149 3132.71
599.103 3207.9
599.056 3053.97
599.01 3117.5
598.964 3087.86
598.918 3205.69
598.871 3146.94
598.825 3105.66
598.779 3157.49
598.733 3133.67
598.687 3164.16
598.64 3212.07
598.594 3157.25
598.548 3110.2
598.502 3107.73
598.455 3128.5
598.409 3056.3
598.363 3106.12
598.317 3097.84
598.271 3045.04
598.224 3106.45
598.178 3034.31
598.132 3138.27
598.086 3137.73
598.039 3055.95
597.993 3113.44
597.947 2973.69
597.901 3075.63
597.855 3080.9
597.808 3086.17
597.762 3141.67
597.716 3139.19
597.67 3082.64
597.623 3041.55
597.577 3071.92
597.531 3040.5
597.485 3072.79
597.438 3062.61
597.392 3058.22
597.346 3051.91
597.3 3020.52
597.253 2994.93
597.207 3083.1
597.161 3090.28
597.115 3085.89
597.068 3133.54
597.022 3038.58
596.976 2912.84
596.93 3091.47
596.883 3065.9
596.837 3051.89
596.791 3043.66
596.745 3033.51
596.698 3100.34
596.652 3047.85
596.606 3080.03
596.56 3025.64
596.513 2980.89
596.467 2993.83
596.421 3020.23
596.375 3013.94
596.328 3151.79
596.282 2951.41
596.236 2991.24
596.189 2992.65
596.143 3030.54
596.097 3095.3
596.051 3035.25
596.004 3019.37
595.958 3011.17
595.912 3004.89
595.866 3040.82
595.819 2959.73
595.773 3068.54
595.727 2966.38
595.681 3017.63
595.634 3032.44
595.588 3030.0
595.542 2943.25
595.495 2986.8
595.449 3049.5
595.403 2960.87
595.357 3012.06
595.31 3097.69
595.264 3011.02
595.218 2985.62
595.171 2933.43
595.125 3011.37
595.079 2982.15
595.033 2945.3
594.986 2990.68
594.94 3024.57
594.894 2999.2
594.847 3048.37
594.801 2990.52
594.755 3024.39
594.709 2945.55
594.662 3000.42
594.616 3015.18
594.57 2934.47
594.523 2941.59
594.477 3023.15
594.431 2982.56
594.384 2976.31
594.338 2928.11
594.292 2942.86
594.246 2909.93
594.199 3040.98
594.153 3025.2
594.107 2902.7
594.06 2936.5
594.014 2945.51
593.968 3057.39
593.921 2931.16
593.875 2991.59
593.829 3008.2
593.783 2988.64
593.736 2932.93
593.69 2913.39
593.644 2874.83
593.597 2906.67
593.551 2894.76
593.505 2841.01
593.458 2994.52
593.412 2887.55
593.366 2890.85
593.319 2896.05
593.273 2916.44
593.227 2933.03
593.18 2962.91
593.134 2895.93
593.088 2885.94
593.042 2851.27
592.995 2884.93
592.949 2918.59
592.903 2976.9
592.856 2925.16
592.81 2900.0
592.764 2835.02
592.717 2887.61
592.671 2936.4
592.625 2909.35
592.578 2950.54
592.532 2828.77
592.486 2866.16
592.439 2913.01
592.393 2904.93
592.347 2800.29
592.3 2875.53
592.254 2789.85
592.208 2776.12
592.161 2802.13
592.115 2862.18
592.069 2837.09
592.022 2940.6
591.976 2917.4
591.93 2901.77
591.883 2874.81
591.837 2876.2
591.791 2900.26
591.744 2897.86
591.698 2848.25
591.652 2834.54
591.605 2820.83
591.559 2927.94
591.512 2884.02
591.466 2857.09
591.42 2796.22
591.373 2824.03
591.327 2874.46
591.281 2834.36
591.234 2864.03
591.188 2861.65
591.142 2885.65
591.095 2841.81
591.049 2820.59
591.003 2750.39
590.956 2906.25
590.91 2758.85
590.864 2816.74
590.817 2833.19
590.771 2757.41
590.724 2830.32
590.678 2807.25
590.632 2906.46
590.585 2723.51
590.539 2832.11
590.493 2762.05
590.446 2701.41
590.4 2772.36
590.354 2796.31
590.307 2741.33
590.261 2825.39
590.214 2809.87
590.168 2790.6
590.122 2703.74
590.075 2755.84
590.029 2723.45
589.983 2768.01
589.936 2705.61
589.89 2731.4
589.843 2757.18
589.797 2790.46
589.751 2750.59
589.704 2810.1
589.658 2712.15
589.612 2686.38
589.565 2660.61
589.519 2740.7
589.472 2749.59
589.426 2827.76
589.38 2776.71
589.333 2705.09
589.287 2743.92
589.24 2737.83
589.194 2703.67
589.148 2738.74
589.101 2773.8
589.055 2722.83
589.009 2741.05
588.962 2755.52
588.916 2730.74
588.869 2694.76
588.823 2690.55
588.777 2761.07
588.73 2756.85
588.684 2806.79
588.637 2810.03
588.591 2901.02
588.545 2855.71
588.498 2687.26
588.452 2757.69
588.405 2766.54
588.359 2726.88
588.313 2765.57
588.266 2718.47
588.22 2649.02
588.173 2706.34
588.127 2672.32
588.081 2737.06
588.034 2622.95
587.988 2749.14
587.941 2655.55
587.895 2660.67
587.848 2701.16
587.802 2568.54
587.756 2743.02
587.709 2636.48
587.663 2682.53
587.616 2646.72
587.57 2674.15
587.524 2655.09
587.477 2652.76
587.431 2695.05
587.384 2636.97
587.338 2604.92
587.291 2652.76
587.245 2646.73
587.199 2599.84
587.152 2593.81
587.106 2660.18
587.059 2665.29
587.013 2655.54
586.967 2590.14
586.92 2587.83
586.874 2591.08
586.827 2681.5
586.781 2567.93
586.734 2636.06
586.688 2709.74
586.642 2548.04
586.595 2577.24
586.549 2641.63
586.502 2526.33
586.456 2624.03
586.409 2608.76
586.363 2608.3
586.316 2628.2
586.27 2601.84
586.224 2556.97
586.177 2584.27
586.131 2589.37
586.084 2631.45
586.038 2590.31
585.991 2608.34
585.945 2620.82
585.898 2679.49
585.852 2630.98
585.806 2519.69
585.759 2580.19
585.713 2550.19
585.666 2560.82
585.62 2636.06
585.573 2578.38
585.527 2612.99
585.48 2592.23
585.434 2601.0
585.388 2585.79
585.341 2511.57
585.295 2520.35
585.248 2532.81
585.202 2536.05
585.155 2611.16
585.109 2551.74
585.062 2560.51
585.016 2480.86
584.969 2596.43
584.923 2572.04
584.877 2516.37
584.83 2519.61
584.784 2589.09
584.737 2570.23
584.691 2573.46
584.644 2630.02
584.598 2600.14
584.551 2526.14
584.505 2551.43
584.458 2523.41
584.412 2535.83
584.365 2465.57
584.319 2483.51
584.272 2512.45
584.226 2493.65
584.179 2506.06
584.133 2522.14
584.087 2418.92
584.04 2546.94
583.994 2506.13
583.947 2558.89
583.901 2505.25
583.854 2479.14
583.808 2480.53
583.761 2476.43
583.715 2525.48
583.668 2481.06
583.622 2528.25
583.575 2514.98
583.529 2441.28
583.482 2495.79
583.436 2541.12
583.389 2502.23
583.343 2435.915
583.296 2369.6
583.25 2460.66
583.203 2390.72
583.157 2507.34
583.11 2516.04
583.064 2500.97
583.017 2465.8
582.971 2467.19
582.924 2486.86
582.878 2506.52
582.831 2533.47
582.785 2525.72
582.738 2408.41
582.692 2426.25
582.645 2447.72
582.599 2425.39
582.552 2423.14
582.506 2497.51
582.459 2477.0
582.413 2452.86
582.366 2423.25
582.32 2466.58
582.273 2436.98
582.227 2400.1
582.18 2381.45
582.134 2442.97
582.087 2395.18
582.041 2407.51
581.994 2494.48
581.948 2433.97
581.901 2429.9
581.855 2393.07
581.808 2403.56
581.762 2395.86
581.715 2453.64
581.669 2369.56
581.622 2432.78
581.576 2441.44
581.529 2421.01
581.483 2458.75
581.436 2405.62
581.39 2494.21
581.343 2386.61
581.297 2362.58
581.25 2414.81
581.204 2321.8
581.157 2390.36
581.11 2368.17
581.064 2364.12
581.017 2374.58
580.971 2327.01
580.924 2408.2
580.878 2425.9
580.831 2369.28
580.785 2372.48
580.738 2457.23
580.692 2474.92
580.645 2365.79
580.599 2407.03
580.552 2346.85
580.506 2333.76
580.459 2295.33
580.413 2410.75
580.366 2404.9
580.319 2406.28
580.273 2337.12
580.226 2336.7
580.18 2350.76
580.133 2388.31
580.087 2393.31
580.04 2363.97
579.994 2401.49
579.947 2370.36
579.901 2344.65
579.854 2365.9
579.807 2340.2
579.761 2393.95
579.714 2305.08
579.668 2246.92
579.621 2334.94
579.575 2383.23
579.528 2348.54
579.482 2369.77
579.435 2376.56
579.388 2296.81
579.342 2321.64
579.295 2350.06
579.249 2378.48
579.202 2340.22
579.156 2365.02
579.109 2260.15
579.063 2288.56
579.016 2306.16
578.969 2249.95
578.923 2283.74
578.876 2214.96
578.83 2360.29
578.783 2260.94
578.737 2312.69
578.69 2301.5
578.644 2272.32
578.597 2261.14
578.55 2278.71
578.504 2289.08
578.457 2277.9
578.411 2281.08
578.364 2280.68
578.318 2271.3
578.271 2270.89
578.224 2320.75
578.178 2363.4
578.131 2301.98
578.085 2281.84
578.038 2245.56
577.992 2307.93
577.945 2253.73
577.898 2290.97
577.852 2340.75
577.805 2250.73
577.759 2304.08
577.712 2301.88
577.665 2267.45
577.619 2184.67
577.572 2349.0
577.526 2253.71
577.479 2285.52
577.433 2238.59
577.386 2250.71
577.339 2236.0
577.293 2264.22
577.246 2276.34
577.2 2263.42
577.153 2257.65
577.106 2223.29
577.06 2251.49
577.013 2252.87
576.967 2314.99
576.92 2253.86
576.873 2285.6
576.827 2224.49
576.78 2258.01
576.734 2254.04
576.687 2262.56
576.64 2244.32
576.594 2144.03
576.547 2295.23
576.501 2277.0
576.454 2199.93
576.407 2201.32
576.361 2314.99
576.314 2246.86
576.268 2273.19
576.221 2244.28
576.174 2210.05
576.128 2181.16
576.081 2312.51
576.035 2169.71
575.988 2244.06
575.941 2156.48
575.895 2221.92
575.848 2241.09
575.802 2246.02
575.755 2202.95
575.708 2193.67
575.662 2187.94
575.615 2210.66
575.568 2208.48
575.522 2177.89
575.475 2232.56
575.429 2200.2
575.382 2215.79
575.335 2211.84
575.289 2149.33
575.242 2209.28
575.195 2215.98
575.149 2208.49
575.102 2165.53
575.056 2182.88
575.009 2221.49
574.962 2210.46
574.916 2156.9
574.869 2245.11
574.822 2147.27
574.776 2175.23
574.729 2142.96
574.683 2193.93
574.636 2105.01
574.589 2180.75
574.543 2176.82
574.496 2190.59
574.449 2124.74
574.403 2191.58
574.356 2122.21
574.309 2190.79
574.263 2158.58
574.216 2175.87
574.17 2161.34
574.123 2150.36
574.076 2149.97
574.03 2123.095
573.983 2096.22
573.936 2139.99
573.89 2090.18
573.843 2132.17
573.796 2126.49
573.75 2120.82
573.703 2111.62
573.656 2107.71
573.61 2107.33
573.563 2098.14
573.517 2129.5
573.47 2081.53
573.423 2192.17
573.377 2156.54
573.33 2119.17
573.283 2067.71
573.237 2148.34
573.19 2156.76
573.143 2172.22
573.097 2067.99
573.05 2085.22
573.003 2118.27
572.957 2128.45
572.91 2179.07
572.863 2118.89
572.817 2046.43
572.77 2123.41
572.723 2121.27
572.677 2064.66
572.63 2057.26
572.583 2116.62
572.537 2098.68
572.49 2043.87
572.443 2108.46
572.397 2083.51
572.35 2093.66
572.303 2091.53
572.257 2092.91
572.21 2097.8
572.163 2116.71
572.117 2005.87
572.07 2144.0
572.023 2055.98
571.977 2010.05
571.93 2062.25
571.883 2075.9
571.837 2035.24
571.79 2066.4
571.743 2078.28
571.697 2053.4
571.65 1995.28
571.603 2089.41
571.557 2076.79
571.51 2090.41
571.463 2028.82
571.416 2056.44
571.37 2003.62
571.323 2031.23
571.276 2046.59
571.23 2058.46
571.183 2023.15
571.136 2111.87
571.09 1984.0
571.043 2050.0
570.996 2047.88
570.95 2085.92
570.903 1979.08
570.856 2003.16
570.809 1978.37
570.763 1981.5
570.716 2019.52
570.669 2006.95
570.623 2065.86
570.576 1983.57
570.529 2000.64
570.483 1942.78
570.436 2029.53
570.389 1952.53
570.343 2047.96
570.296 2007.55
570.249 2007.19
570.202 2001.6
570.156 2004.72
570.109 2060.04
570.062 2042.27
570.016 1932.33
569.969 2046.76
569.922 2009.88
569.875 2012.99
569.829 2040.44
569.782 1951.45
569.735 1996.27
569.689 1973.33
569.642 1962.55
569.595 1939.62
569.548 1918.44
569.502 1938.93
569.455 1962.87
569.408 2002.43
569.362 1995.13
569.315 1934.06
569.268 1954.52
569.221 1954.17
569.175 1913.95
569.128 1953.47
569.081 1949.65
569.035 1999.55
568.988 1931.62
568.941 1984.97
568.894 1901.49
568.848 1960.02
568.801 1956.2
568.754 1967.96
568.707 1950.3
568.661 1885.93
568.614 1895.97
568.567 1938.87
568.521 1917.77
568.474 1913.97
568.427 1941.28
568.38 1921.92
568.334 1854.18
568.287 1883.22
568.24 1919.15
568.193 1898.08
568.147 1921.91
568.1 1997.53
568.053 1893.6
568.006 1881.18
567.96 1903.27
567.913 1908.1
567.866 1871.54
567.82 1886.72
567.773 1931.21
567.726 1867.08
567.679 1808.13
567.633 1875.02
567.586 1879.85
567.539 1896.74
567.492 1880.89
567.446 1816.84
567.399 1871.61
567.352 1814.46
567.305 1898.47
567.259 1829.29
567.212 1828.96
567.165 1820.03
567.118 1890.22
567.072 1881.28
567.025 1837.95
566.978 1829.03
566.931 1878.54
566.885 1804.31
566.838 1840.06
566.791 1884.39
566.744 1805.05
566.697 1863.11
566.651 1859.33
566.604 1812.65
566.557 1783.15
566.51 1818.86
566.464 1818.53
566.417 1806.2
566.37 1855.6
566.323 1827.83
566.277 1789.79
566.23 1868.31
566.183 1801.14
566.136 1816.23
566.09 1836.46
566.043 1829.28
565.996 1806.68
565.949 1754.99
565.902 1876.22
565.856 1780.03
565.809 1781.42
565.762 1810.18
565.715 1775.64
565.669 1775.32
565.622 1836.56
565.575 1790.06
565.528 1776.06
565.481 1796.25
565.435 1775.42
565.388 1766.56
565.341 1791.86
565.294 1812.03
565.248 1712.66
565.201 1787.47
565.154 1790.56
565.107 1764.64
565.06 1795.03
565.014 1762.29
564.967 1813.14
564.92 1800.88
564.873 1745.99
564.826 1774.65
564.78 1760.7
564.733 1811.5
564.686 1749.83
564.639 1754.63
564.593 1721.105
564.546 1687.58
564.499 1688.97
564.452 1778.89
564.405 1746.23
564.359 1781.65
564.312 1720.08
564.265 1746.98
564.218 1777.28
564.171 1717.44
564.125 1740.93
564.078 1701.52
564.031 1701.21
563.984 1641.43
563.937 1758.35
563.891 1722.36
563.844 1718.65
563.797 1728.53
563.75 1718.03
563.703 1693.96
563.657 1673.28
563.61 1698.43
563.563 1737.14
563.516 1740.22
563.469 1731.42
563.422 1702.28
563.376 1695.19
563.329 1647.43
563.282 1665.77
563.235 1670.55
563.188 1656.69
563.142 1725.83
563.095 1703.51
563.048 1711.66
563.001 1636.87
562.954 1673.81
562.908 1707.34
562.861 1659.66
562.814 1718.56
562.767 1647.22
562.72 1670.59
562.673 1636.48
562.627 1691.96
562.58 1698.41
562.533 1660.93
562.486 1670.76
562.439 1626.54
562.392 1649.89
562.346 1679.98
562.299 1669.55
562.252 1643.93
562.205 1643.63
562.158 1619.71
562.111 1636.28
562.065 1635.98
562.018 1627.25
561.971 1608.41
561.924 1651.95
561.877 1641.53
561.83 1626.07
561.784 1699.9
561.737 1644.01
561.69 1618.44
561.643 1626.57
561.596 1643.11
561.549 1614.19
561.503 1674.48
561.456 1645.57
561.409 1680.6
561.362 1624.79
561.315 1627.86
561.268 1548.54
561.222 1660.89
561.175 1647.14
561.128 1613.23
561.081 1601.17
561.034 1585.76
560.987 1659.37
560.94 1561.67
560.894 1621.83
560.847 1619.86
560.8 1596.06
560.753 1631.01
560.706 1618.97
560.659 1640.48
560.613 1574.78
560.566 1628.14
560.519 1664.73
560.472 1592.35
560.425 1598.76
560.378 1580.04
560.331 1551.27
560.285 1609.61
560.238 1577.5
560.191 1547.07
560.144 1566.88
560.097 1551.53
560.05 1608.14
560.003 1524.19
559.956 1530.61
559.91 1598.9
559.863 1593.59
559.816 1544.82
559.769 1569.61
559.722 1562.64
559.675 1555.67
559.628 1582.11
559.582 1511.67
559.535 1526.42
559.488 1602.95
559.441 1559.25
559.394 1532.26
559.347 1578.71
559.3 1518.35
559.253 1591.48
559.207 1579.51
559.16 1519.19
559.113 1538.92
559.066 1543.64
559.019 1516.69
558.972 1553.07
558.925 1512.8
558.878 1497.53
558.832 1543.89
558.785 1531.95
558.738 1499.21
558.691 1466.47
558.644 1562.73
558.597 1569.1
558.55 1523.9
558.503 1508.65
558.456 1544.96
558.41 1531.37
558.363 1529.43
558.316 1547.43
558.269 1444.12
558.222 1503.67
558.175 1493.42
558.128 1529.69
558.081 1494.54
558.034 1459.4
557.988 1525.53
557.941 1460.52
557.894 1584.71
557.847 1556.21
557.8 1494.55
557.753 1479.35
557.706 1515.56
557.659 1528.55
557.612 1506.72
557.565 1426.89
557.519 1539.31
557.472 1467.79
557.425 1508.93
557.378 1573.24
557.331 1468.64
557.284 1474.99
557.237 1458.17
557.19 1507.54
557.143 1492.38
557.096 1511.95
557.049 1445.52
557.003 1481.63
556.956 1481.36
556.909 1486.05
556.862 1452.72
556.815 1455.76
556.768 1513.32
556.721 1475.05
556.674 1466.52
556.627 1462.95
556.58 1477.54
556.533 1440.95
556.487 1506.7
556.44 1471.77
556.393 1423.66
556.346 1509.17
556.299 1446.22
556.252 1455.85
556.205 1500.09
556.158 1440.48
556.111 1463.29
556.064 1479.49
556.017 1434.75
555.97 1498.71
555.923 1485.27
555.877 1387.86
555.83 1448.51
555.783 1443.3
555.736 1461.14
555.689 1423.03
555.642 1416.19
555.595 1443.89
555.548 1427.18
555.501 1453.22
555.454 1428.3
555.407 1478.98
555.36 1460.63
555.313 1434.08
555.266 1483.09
555.22 1458.18
555.173 1446.42
555.126 1449.44
555.079 1468.87
555.032 1466.96
554.985 1471.61
554.938 1468.06
554.891 1448.11
554.844 1408.49
554.797 1450.85
554.75 1435.83
554.703 1443.76
554.656 1415.64
554.609 1438.32
554.562 1436.41
554.515 1403.4
554.468 1404.77
554.421 1455.26
554.375 1432.08
554.328 1441.63
554.281 1385.74
554.234 1390.39
554.187 1453.92
554.14 1373.53
554.093 1410.88
554.046 1374.66
553.999 1423.43
553.952 1423.17
553.905 1401.67
553.858 1424.28
553.811 1440.35
553.764 1394.36
553.717 1421.86
553.67 1393.85
553.623 1364.22
553.576 1501.02
553.529 1433.86
553.482 1422.18
553.435 1462.68
553.388 1379.26
553.341 1385.53
553.295 1334.75
553.248 1401.31
553.201 1389.65
553.154 1377.99
553.107 1369.59
553.06 1414.93
553.013 1360.95
552.966 1378.6
552.919 1409.27
552.872 1361.82
552.825 1441.28
552.778 1398.73
552.731 1309.03
552.684 1424.22
552.637 1384.95
552.59 1371.69
552.543 1373.06
552.496 1398.8
552.449 1317.33
552.402 1398.28
552.355 1357.43
552.308 1366.92
552.261 1410.49
552.214 1351.81
552.167 1405.1
552.12 1370.78
552.073 1398.1
552.026 1386.49
551.979 1381.37
551.932 1376.25
551.885 1340.34
551.838 1369.26
551.791 1369.0
551.744 1352.55
551.697 1366.88
551.65 1408.72
551.603 1363.13
551.556 1343.46
551.509 1348.06
551.462 1365.61
551.415 1366.98
551.368 1384.52
551.321 1340.6
551.274 1367.83
551.227 1346.57
551.18 1352.78
551.133 1355.76
551.086 1332.89
551.039 1363.34
550.992 1371.16
550.945 1301.47
550.898 1322.22
550.851 1346.19
550.804 1334.64
550.757 1348.91
550.71 1363.18
550.663 1343.58
550.616 1327.2
550.569 1368.87
550.522 1379.9
550.475 1365.14
550.428 1384.23
550.381 1346.91
550.334 1346.66
550.287 1364.13
550.24 1307.52
550.193 1312.11
550.146 1326.35
550.099 1343.81
550.052 1345.17
550.005 1330.44
549.958 1391.31
549.911 1328.34
549.864 1328.09
549.817 1335.88
549.77 1316.35
549.723 1348.24
549.676 1288.54
549.629 1339.71
549.582 1326.61
549.535 1321.55
549.488 1306.85
549.441 1288.95
549.394 1263.03
549.347 1317.36
549.3 1318.72
549.253 1312.05
549.206 1327.85
549.159 1324.39
549.112 1264.83
549.065 1315.89
549.018 1338.08
548.971 1272.955
548.924 1207.83
548.877 1303.7
548.83 1281.04
548.783 1288.8
548.736 1285.36
548.689 1259.52
548.642 1286.49
548.595 1259.05
548.548 1289.21
548.5 1295.36
548.453 1295.12
548.406 1264.51
548.359 1333.0
548.312 1265.63
548.265 1298.95
548.218 1257.18
548.171 1308.05
548.124 1280.66
548.077 1329.91
548.03 1280.18
547.983 1318.25
547.936 1294.07
547.889 1255.54
547.842 1285.61
547.795 1291.75
547.748 1261.22
547.701 1233.88
547.654 1275.09
547.607 1303.54
547.56 1263.46
547.513 1264.82
547.466 1255.03
547.418 1288.23
547.371 1262.52
547.324 1341.87
547.277 1324.12
547.23 1411.39
547.183 1411.12
547.136 1445.85
547.089 1445.58
547.042 1429.41
546.995 1387.82
546.948 1489.28
546.901 1371.41
546.854 1296.48
546.807 1286.7
546.76 1262.64
546.713 1246.52
546.666 1244.7
546.618 1258.76
546.571 1334.7
546.524 1263.05
546.477 1318.34
546.43 1276.85
546.383 1252.83
546.336 1306.5
546.289 1261.87
546.242 1266.39
546.195 1253.48
546.148 1254.83
546.101 1246.67
546.054 1235.35
546.007 1303.21
545.96 1225.39
545.912 1293.23
545.865 1248.67
545.818 1327.55
545.771 1259.28
545.724 1233.74
545.677 1243.0
545.63 1241.18
545.583 1209.33
545.536 1296.04
545.489 1249.97
545.442 1229.19
545.395 1213.17
545.348 1272.96
545.3 1266.4
545.253 1228.28
545.206 1246.99
545.159 1188.36
545.112 1257.57
545.065 1254.18
545.018 1272.87
544.971 1241.09
544.924 1245.59
544.877 1240.63
544.83 1197.84
544.783 1251.19
544.735 1250.96
544.688 1255.45
544.641 1237.89
544.594 1232.93
544.547 1149.26
544.5 1257.66
544.453 1227.52
544.406 1205.26
544.359 1269.54
544.312 1211.1
544.264 1239.18
544.217 1226.37
544.17 1211.99
544.123 1203.91
544.076 1235.11
544.029 1208.17
543.982 1198.52
543.935 1166.88
543.888 1198.07
543.841 1191.57
543.793 1219.6
543.746 1246.05
543.699 1205.02
543.652 1250.28
543.605 1154.37
543.558 1210.61
543.511 1185.3
543.464 1216.43
543.417 1156.64
543.37 1203.44
543.322 1225.14
543.275 1168.52
543.228 1232.51
543.181 1186.87
543.134 1232.05
543.087 1173.91
543.04 1201.86
542.993 1150.0
542.946 1182.63
542.898 1212.13
542.851 1158.73
542.804 1139.755
542.757 1120.78
542.71 1103.38
542.663 1203.18
542.616 1159.21
542.569 1141.81
542.521 1165.02
542.474 1119.52
542.427 1145.85
542.38 1117.54
542.333 1128.25
542.286 1124.92
542.239 1151.23
542.192 1107.34
542.144 1127.4
542.097 1085.1
542.05 1111.39
542.003 1156.38
541.956 1093.83
541.909 1143.48
541.862 1152.61
541.815 1124.36
541.767 1088.34
541.72 1102.15
541.673 1129.95
541.626 1120.4
541.579 1149.75
541.532 1119.98
541.485 1127.55
541.437 1086.91
541.39 1105.36
541.343 1070.96
541.296 1126.7
541.249 1079.87
541.202 1101.42
541.155 1124.51
541.107 1080.82
541.06 1128.75
541.013 1071.1
540.966 1103.49
540.919 1080.0
540.872 1099.97
540.825 1088.9
540.777 1035.97
540.73 1080.74
540.683 1077.44
540.636 1102.03
540.589 1046.04
540.542 1047.39
540.495 1028.6
540.447 1029.96
540.4 1080.86
540.353 1068.27
540.306 1040.21
540.259 1078.71
540.212 1083.14
540.165 1082.94
540.117 1082.74
540.07 1042.32
540.023 1096.24
539.976 1119.22
539.929 1074.19
539.882 1036.9
539.834 1045.98
539.787 1034.96
539.74 1040.95
539.693 1023.76
539.646 1065.26
539.599 1017.2
539.551 1080.29
539.504 979.789
539.457 1062.91
539.41 1044.2
539.363 1105.69
539.316 1029.93
539.268 1079.06
539.221 1055.74
539.174 1029.35
539.127 1046.1
539.08 1008.93
539.033 1021.06
538.985 1011.63
538.938 968.333
538.891 1031.26
538.844 1023.37
538.797 1006.25
538.75 1029.13
538.702 988.951
538.655 1042.58
538.608 996.264
538.561 993.002
538.514 1022.01
538.467 1000.31
538.419 967.858
538.372 966.139
538.325 1008.96
538.278 1014.91
538.231 1022.39
538.183 1014.52
538.136 992.847
538.089 1006.47
538.042 1006.28
537.995 996.884
537.948 993.629
537.9 1002.64
537.853 1007.05
537.806 977.739
537.759 974.49
537.712 997.284
537.664 986.374
537.617 992.312
537.57 992.125
537.523 1007.24
537.476 971.853
537.428 1012.98
537.381 1011.26
537.334 1023.31
537.287 1009.35
537.24 1001.51
537.192 964.633
537.145 959.1015
537.098 953.57
537.051 1005.34
537.004 997.509
536.956 966.774
536.909 1004.77
536.862 981.674
536.815 972.33
536.768 955.358
536.72 956.702
536.673 971.776
536.626 963.966
536.579 1003.43
536.532 974.273
536.484 946.649
536.437 951.042
536.39 918.861
536.343 920.21
536.296 980.965
536.248 964.026
536.201 963.843
536.154 922.556
536.107 984.786
536.06 960.251
536.012 1005.71
535.965 929.462
535.918 971.871
535.871 965.604
535.823 951.737
535.776 945.476
535.729 913.382
535.682 987.663
535.635 903.919
535.587 912.861
535.54 926.355
535.493 926.179
535.446 951.81
535.399 916.721
535.351 952.965
535.304 934.578
535.257 905.58
535.21 988.82
535.162 1000.76
535.115 924.771
535.068 947.331
535.021 963.821
534.974 977.274
534.926 913.464
534.879 937.523
534.832 897.973
534.785 946.25
534.737 940.016
534.69 933.783
534.643 985.052
534.596 948.556
534.548 963.501
534.501 893.753
534.454 954.062
534.407 876.784
534.36 905.334
534.312 927.828
534.265 909.522
534.218 894.243
534.171 939.38
534.123 937.691
534.076 899.771
534.029 902.618
533.982 882.828
533.934 924.906
533.887 918.696
533.84 880.815
533.793 888.187
533.745 904.602
533.698 908.951
533.651 883.158
533.604 937.234
533.556 900.899
533.509 923.321
533.462 938.204
533.415 858.225
533.367 906.233
533.32 903.05
533.273 901.373
533.226 884.652
533.178 869.441
533.131 915.897
533.084 915.722
533.037 920.057
532.989 874.79
532.942 909.187
532.895 887.978
532.848 878.795
532.8 923.685
532.753 899.483
532.706 926.335
532.659 891.634
532.611 867.451
532.564 891.293
532.517 888.123
532.47 907.452
532.422 851.792
532.375 838.8875
532.328 825.983
532.281 900.764
532.233 854.138
532.186 865.961
532.139 849.318
532.091 868.625
532.044 920.866
531.997 896.737
531.95 860.643
531.902 867.961
531.855 849.841
531.808 830.231
531.761 807.638
531.713 855.334
531.666 885.072
531.619 908.819
531.572 854.844
531.524 859.163
531.477 830.614
531.43 852.859
531.382 872.11
531.335 882.394
531.288 838.935
531.241 810.417
531.193 840.106
531.146 820.55
531.099 875.583
531.051 876.907
531.004 860.337
530.957 840.793
530.91 851.065
530.862 843.451
530.815 870.108
530.768 872.92
530.72 838.498
530.673 853.228
530.626 854.553
530.579 830.574
530.531 794.698
530.484 813.889
530.437 816.708
530.389 797.216
530.342 826.804
530.295 835.566
530.248 830.947
530.2 842.677
530.153 833.6
530.106 830.469
530.058 815.456
530.011 801.934
529.964 815.143
529.917 868.428
529.869 828.188
529.822 773.124
529.775 835.288
529.727 836.612
529.68 805.307
529.633 794.772
529.585 890.982
529.538 781.127
529.491 822.471
529.444 865.281
529.396 817.712
529.349 814.592
529.302 802.59
529.254 817.241
529.207 818.564
529.16 799.167
529.112 812.331
529.065 784.8115
529.018 757.292
528.971 791.159
528.923 792.486
528.876 814.507
528.829 811.395
528.781 786.118
528.734 803.696
528.687 799.11
528.639 798.956
528.592 819.474
528.545 807.506
528.497 773.404
528.45 757.023
528.403 795.237
528.355 789.184
528.308 809.68
528.261 791.83
528.214 799.048
528.166 804.791
528.119 769.267
528.072 775.013
528.024 799.907
527.977 798.28
527.93 814.324
527.882 815.64
527.835 746.299
527.788 768.231
527.74 804.869
527.693 759.108
527.646 788.379
527.598 763.228
527.551 743.967
527.504 779.104
527.456 783.363
527.409 793.498
527.362 753.678
527.314 804.943
527.267 762.199
527.22 784.077
527.172 788.33
527.125 764.694
527.078 741.067
527.03 793.743
526.983 759.851
526.936 764.104
526.888 768.356
526.841 719.828
526.794 737.279
526.746 748.86
526.699 778.02
526.652 726.598
526.604 730.851
526.557 748.282
526.51 781.812
526.462 777.269
526.415 747.849
526.368 750.631
526.32 719.765
526.273 763.506
526.226 720.949
526.178 709.113
526.131 704.591
526.084 726.378
526.036 751.079
525.989 753.856
525.942 734.721
525.894 708.292
525.847 696.474
525.799 697.8
525.752 753.128
525.705 712.123
525.657 719.28
525.61 754.15
525.563 767.13
525.515 736.361
525.468 762.46
525.421 715.67
525.373 733.019
525.326 719.764
525.279 742.933
525.231 736.963
525.184 714.978
525.137 736.678
525.089 705.246
525.042 673.814
524.994 704.24
524.947 734.654
524.9 702.513
524.852 761.999
524.805 750.22
524.758 715.188
524.71 725.223
524.663 722.176
524.616 745.281
524.568 743.684
524.521 691.26
524.473 740.493
524.426 675.024
524.379 679.248
524.331 697.98
524.284 696.394
524.237 719.468
524.189 681.622
524.142 729.339
524.094 701.654
524.047 708.765
524.0 673.848
523.952 679.513
523.905 699.661
523.858 705.319
523.81 682.014
523.763 707.941
523.715 675.96
523.668 712.008
523.621 671.357
523.573 695.819
523.526 708.701
523.479 688.319
523.431 670.836
523.384 657.697
523.336 664.795
523.289 689.23
523.242 667.426
523.194 670.186
523.147 674.388
523.1 665.594
523.052 687.118
523.005 646.573
522.957 649.334
522.91 665.077
522.863 685.142
522.815 682.124
522.768 651.713
522.72 642.937
522.673 658.667
522.626 672.949
522.578 685.784
522.531 689.973
522.483 685.518
522.436 647.948
522.389 649.261
522.341 670.725
522.294 659.082
522.247 667.587
522.199 658.826
522.152 664.451
522.104 660.008
522.057 661.317
522.01 656.877
521.962 643.815
521.915 663.805
521.867 636.382
521.82 636.258
521.773 657.674
521.725 636.011
521.678 645.935
521.63 632.893
521.583 682.99
521.535 632.647
521.488 668.381
521.441 632.4
521.393 633.711
521.346 629.287
521.298 620.567
521.251 611.847
521.204 618.891
521.156 641.688
521.109 635.835
521.061 609.939
521.014 639.882
520.967 629.739
520.919 626.754
520.872 619.479
520.824 582.168
520.777 636.398
520.73 652.003
520.682 604.7
520.635 598.865
520.587 631.615
520.54 604.347
520.492 601.372
520.445 649.812
520.398 605.421
520.35 663.835
520.303 610.894
520.255 605.067
520.208 612.083
520.16 630.508
520.113 580.467
520.066 634.539
520.018 635.841
519.971 598.657
519.923 589.99
519.876 579.901
519.829 621.1
519.781 598.19
519.734 589.529
519.686 616.465
519.639 566.524
519.591 611.955
519.544 604.721
519.497 591.799
519.449 574.616
519.402 617.165
519.354 621.31
519.307 632.56
519.259 596.906
519.212 605.315
519.164 573.943
519.117 573.83
519.07 596.44
519.022 577.866
518.975 586.27
518.927 567.705
518.88 588.879
518.832 583.089
518.785 624.109
518.738 575.779
518.69 527.449
518.643 585.468
518.595 557.007
518.548 565.4
518.5 583.707
518.453 551.014
518.405 556.571
518.358 557.878
518.311 590.329
518.263 547.752
518.216 584.437
518.168 540.463
518.121 574.307
518.073 569.952
518.026 589.636
517.978 542.868
517.931 527.214
517.883 558.2
517.836 565.155
517.789 576.345
517.741 549.398
517.694 546.466
517.646 559.065
517.599 563.19
517.551 524.977
517.504 537.572
517.456 567.091
517.409 543.003
517.361 562.638
517.314 585.086
517.267 577.923
517.219 576.4
517.172 528.381
517.124 539.547
517.077 536.624
517.029 526.662
516.982 556.125
516.934 554.608
516.887 502.427
516.839 581.125
516.792 524.739
516.744 549.953
516.697 531.564
516.65 530.054
516.602 556.658
516.555 577.63
516.507 546.603
516.46 529.637
516.412 516.892
516.365 553.303
516.317 520.901
516.27 533.433
516.222 530.521
516.175 540.239
516.127 509.268
516.08 531.611
516.032 528.702
515.985 541.217
515.937 534.101
515.89 521.382
515.842 512.872
515.795 547.797
515.748 532.281
515.7 529.375
515.653 527.871
515.605 544.566
515.558 517.866
515.51 530.358
515.463 491.08
515.415 499.376
515.368 531.444
515.32 525.746
515.273 505.376
515.225 485.006
515.178 526.833
515.13 508.567
515.083 495.895
515.035 536.299
514.988 498.492
514.94 534.692
514.893 488.525
514.845 494.011
514.798 523.214
514.75 510.556
514.703 496.509
514.655 521.51
514.608 474.007
514.56 489.246
514.513 517.021
514.465 497.413
514.418 484.778
514.37 501.395
514.323 470.662
514.275 495.629
514.228 517.802
514.18 481.517
514.133 481.422
514.085 502.194
514.038 500.704
513.99 497.824
513.943 485.213
513.895 468.437
513.848 469.735
513.8 484.926
513.753 494.555
513.705 502.791
513.658 459.643
513.61 480.378
513.563 460.85
513.515 462.147
513.468 471.769
513.42 446.705
513.373 457.712
513.325 478.423
513.278 472.783
513.23 503.185
513.183 465.666
513.135 448.947
513.088 498.731
513.04 484.782
512.993 452.835
512.945 467.976
512.898 472.036
512.85 484.399
512.803 448.326
512.755 481.441
512.708 482.729
512.66 459.124
512.613 472.859
512.565 457.56
512.518 462.998
512.47 462.906
512.423 497.353
512.375 454.436
512.328 457.108
512.28 466.682
512.232 461.068
512.185 451.316
512.137 455.366
512.09 463.554
512.042 446.22349999999994
511.995 428.893
511.947 467.415
511.9 434.238
511.852 467.23
511.805 478.161
511.757 435.358
511.71 460.065
511.662 446.203
511.615 435.099
511.567 450.156
511.52 461.077
511.472 459.61
511.425 459.519
511.377 474.559
511.329 423.58
511.282 459.246
511.234 438.534
511.187 459.064
511.139 445.231
511.092 441.021
511.044 434.066
510.997 442.22
510.949 431.147
510.902 400.86
510.854 465.29
510.807 444.614
510.759 401.994
510.711 440.322
510.664 458.064
510.616 429.178
510.569 452.398
510.521 434.49
510.474 452.219
510.426 446.649
510.379 431.492
510.331 435.515
510.284 418.997
510.236 417.545
510.188 432.518
510.141 442.012
510.093 426.874
510.046 429.525
509.998 448.587
509.951 414.313
509.903 430.636
509.856 431.917
509.808 408.6
509.761 456.339
509.713 438.49
509.665 432.94
509.618 406.91
509.57 413.655
509.523 423.127
509.475 418.949
509.428 399.765
509.38 440.608
509.333 414.613
509.285 388.618
509.237 398.083
509.19 393.915
509.142 402.013
509.095 437.358
509.047 407.302
509.0 420.841
508.952 415.31
508.904 411.143
508.857 424.673
508.809 406.897
508.762 386.407
508.714 412.177
508.667 414.815
508.619 431.049
508.572 428.244
508.524 413.208
508.476 390.023
508.429 419.836
508.381 423.828
508.334 400.655
508.286 415.512
508.239 419.502
508.191 415.346
508.143 405.764
508.096 404.327
508.048 383.898
508.001 412.303
507.953 391.881
507.906 380.957
507.858 379.526
507.81 374.029
507.763 382.084
507.715 418.583
507.668 373.806
507.62 380.502
507.573 418.333
507.525 392.532
507.477 401.926
507.43 400.493
507.382 389.591
507.335 421.973
507.287 416.48
507.239 409.637
507.192 369.005
507.144 363.527
507.097 358.049
507.049 389.047
507.002 367.36
506.954 371.338
506.906 390.164
506.859 403.584
506.811 403.504
506.764 434.456
506.716 441.114
506.668 446.42
506.621 415.317
506.573 405.797
506.526 369.323
506.478 380.03
506.43 347.618
506.383 379.878
506.335 378.455
506.288 381.073
506.24 364.841
506.192 387.651
506.145 387.573
506.097 386.15
506.05 367.24
506.002 360.442
505.954 414.156
505.907 371.053
505.859 372.323
505.812 366.873
505.764 389.64
505.716 388.219
505.669 369.339
505.621 366.579
505.574 406.781
505.526 374.486
505.478 358.307
505.431 354.21
505.383 352.798
505.336 371.504
505.288 348.634
505.24 348.564
505.193 348.494
505.145 357.805
505.098 360.413
505.05 379.095
505.002 354.912
504.955 380.282
504.907 372.173
504.86 358.7165
504.812 345.26
504.764 345.19
504.717 357.16
504.669 353.076
504.622 357.017
504.574 358.282
504.526 343.508
504.479 358.139
504.431 370.091
504.383 353.988
504.336 357.923
504.288 375.21
504.241 359.115
504.193 352.369
504.145 357.636
504.098 360.233
504.05 350.823
504.002 341.417
503.955 358.682
503.907 331.948
503.86 358.538
503.812 365.129
503.764 343.739
503.717 378.303
503.669 354.255
503.621 368.83
503.574 363.431
503.526 366.02
503.479 332.679
503.431 352.569
503.383 335.206
503.336 353.757
503.288 348.367
503.24 338.992
503.193 348.227
503.145 372.076
503.098 375.987
503.05 342.7105
503.002 309.434
502.955 354.516
502.907 351.79
502.859 330.483
502.812 341.032
502.764 340.964
502.716 368.751
502.669 335.522
502.621 356.669
502.574 327.433
502.526 344.597
502.478 333.927
502.431 316.637
502.383 343.064
502.335 312.536
502.288 325.714
502.24 330.943
502.192 345.435
502.145 350.659
502.097 336.035
502.05 339.936
502.002 325.32
501.954 329.221
501.907 330.477
501.859 319.837
501.811 318.451
501.764 338.204
501.716 344.74
501.668 342.029
501.621 357.804
501.573 324.731
501.525 333.904
501.478 316.683
501.43 308.703
501.382 324.469
501.335 317.81
501.287 300.606
501.239 307.136
501.192 303.12
501.144 321.506
501.097 322.759
501.049 318.742
501.001 305.509
500.954 318.614
500.906 284.325
500.858 336.91
500.811 303.947
500.763 348.613
500.715 313.031
500.668 334.008
500.62 301.072
500.572 312.841
500.525 325.92
500.477 314.029
500.429 332.357
500.382 299.455
500.334 305.96
500.286 320.34
500.239 334.713
500.191 328.084
500.143 295.216
500.096 278.103
500.048 314.77
500.0 274.057
499.953 317.264
499.905 305.404
499.857 294.858
499.81 335.415
499.762 298.669
499.714 305.157
499.667 297.238
499.619 312.888
499.571 297.118
499.524 297.058
499.476 325.782
499.428 336.181
499.381 320.419
499.333 320.354
499.285 295.45
499.238 311.075
499.19 297.944
499.142 305.723
499.094 292.601
499.047 279.479
498.999 295.091
498.951 313.308
498.904 294.972
498.856 306.656
498.808 292.243
498.761 277.835
498.713 285.604
498.665 306.408
498.618 292.006
498.57 310.193
498.522 285.372
498.475 313.976
498.427 303.492
498.379 306.035
498.332 277.329
498.284 279.876
498.236 281.121
498.188 283.666
498.141 313.531
498.093 273.145
498.045 275.691
497.998 289.937
497.95 308.076
497.902 288.519
497.855 283.263
497.807 266.317
497.759 279.252
497.712 277.897
497.664 298.613
497.616 268.697
497.568 281.621
497.521 265.993
497.473 282.803
497.425 281.449
497.378 296.953
497.33 269.666
497.282 334.422
497.235 299.364
497.187 256.545
497.139 308.31
497.091 275.868
497.044 290.056
496.996 279.64
496.948 301.587
496.901 283.409
496.853 275.588
496.805 297.523
496.758 296.169
496.71 266.368
496.662 254.679
496.614 289.525
496.567 280.421
496.519 289.408
496.471 293.224
496.424 284.124
496.376 278.901
496.328 300.791
496.28 263.3
496.233 260.665
496.185 270.933
496.137 273.458
496.09 275.981
496.042 282.372
495.994 282.315
495.946 255.191
495.899 264.159
495.851 273.124
495.803 288.52200000000005
495.756 303.92
495.708 275.532
495.66 293.498
495.612 263.837
495.565 274.077
495.517 288.172
495.469 248.241
495.422 297.056
495.374 964.272
495.326 824.3342
495.278 684.3964000000001
495.231 544.4586
495.183 404.5208
495.135 264.583
495.088 267.098
495.04 285.017
494.992 273.407
494.944 268.218
494.897 250.2
494.849 255.28
494.801 259.075
494.753 275.692
494.706 273.072
494.658 255.075
494.61 237.078
494.563 237.03
494.515 280.535
494.467 274.074
494.419 250.97
494.372 263.72
494.324 244.468
494.276 272.57
494.228 240.529
494.181 262.226
494.133 281.355
494.085 274.905
494.037 254.395
493.99 239.006
493.942 260.68
493.894 264.459
493.847 261.851
493.799 257.966
493.751 286.003
493.703 262.967
493.656 269.294
493.608 255.203
493.56 244.945
493.512 252.548
493.465 252.496
493.417 269.019
493.369 261.315
493.321 259.988
493.274 244.644
493.226 238.224
493.178 243.27
493.13 245.767
493.083 239.351
493.035 243.121
492.987 264.706
492.939 268.468
492.892 241.699
492.844 265.815
492.796 247.958
492.748 245.365
492.701 241.501
492.653 236.369
492.605 233.779
492.557 232.461
492.51 250.193
492.462 242.524
492.414 231.051
492.366 219.578
492.319 229.685
492.271 220.757
492.223 241.007
492.175 234.616
492.128 235.836
492.08 244.661
492.032 243.344
491.984 235.691
491.937 257.18
491.889 248.26
491.841 235.546
491.793 243.094
491.746 231.651
491.698 248.057
491.65 217.638
491.602 265.666
491.554 250.433
491.507 236.472
491.459 247.802
491.411 241.431
491.363 247.7
491.316 245.122
491.268 252.651
491.22 229.866
491.172 224.767
491.125 246.183
491.077 224.675
491.029 212.009
490.981 223.321
490.933 257.334
490.886 242.147
490.838 229.488
490.79 257.175
490.742 224.352
490.695 245.728
490.647 240.638
490.599 222.954
490.551 244.317
490.504 248.044
490.456 241.699
490.408 232.839
490.36 244.116
490.312 218.904
490.265 245.273
490.217 232.647
490.169 217.512
490.121 256.435
490.074 233.76
490.026 232.456
489.978 243.714
489.93 231.104
489.882 229.801
489.835 229.753
489.787 234.727
489.739 219.619
489.691 228.357
489.643 233.327
489.596 225.754
489.548 238.247
489.5 218.139
489.452 234.388
489.405 218.049
489.357 235.545
489.309 239.254
489.261 206.643
489.213 236.651
489.166 210.313
489.118 236.553
489.07 212.729
489.022 226.447
488.974 241.41
488.927 223.852
488.879 243.811
488.831 233.76
488.783 213.715
488.735 241.161
488.688 222.372
488.64 244.809
488.592 221.032
488.544 227.228
488.496 238.416
488.449 227.135
488.401 215.858
488.353 215.814
488.305 235.724
488.257 244.404
488.21 216.926
488.162 218.128
488.114 215.591
488.066 229.251
488.018 231.695
487.971 215.457
487.923 207.941
487.875 217.858
487.827 232.748
487.779 246.388
487.732 222.70350000000002
487.684 199.019
487.636 220.12
487.588 213.857
487.54 203.868
487.493 231.169
487.445 201.299
487.397 224.861
487.349 216.12
487.301 218.559
487.254 198.649
487.206 192.401
487.158 210.977
487.11 218.378
487.062 219.573
487.015 217.047
486.967 213.282
486.919 225.636
486.871 200.799
486.823 195.8
486.775 229.213
486.728 206.868
486.68 194.44
486.632 220.403
486.584 224.071
486.536 224.024
486.489 215.316
486.441 202.899
486.393 200.383
486.345 207.762
486.297 216.374
486.249 223.746
486.202 211.34
486.154 216.239
486.106 193.957
486.058 211.209
486.01 221.044
485.962 211.121
485.915 208.608
485.867 214.736
485.819 193.716
485.771 203.544
485.723 217.069
485.676 214.557
485.628 220.677
485.58 203.375
485.532 214.424
485.484 199.594
485.436 206.944
485.389 198.28
485.341 201.933
485.293 190.1985
485.245 178.464
485.197 199.346
485.149 223.91
485.102 207.873
485.054 218.898
485.006 190.574
484.958 190.534
484.91 210.158
484.862 203.971
484.815 202.7
484.767 186.691
484.719 189.108
484.671 196.435
484.623 198.849
484.575 214.761
484.528 196.92950000000002
484.48 179.098
484.432 203.589
484.384 186.38
484.336 174.082
484.288 187.528
484.24 200.969
484.193 183.775
484.145 209.46
484.097 225.336
484.049 216.719
484.001 200.151
483.953 183.583
483.906 199.452
483.858 203.081
483.81 206.708
483.762 195.659
483.714 182.17
483.666 201.689
483.618 182.094
483.571 183.278
483.523 212.558
483.475 216.177
483.427 173.394
483.379 186.174
483.331 198.954
483.283 181.828
483.236 197.651
483.188 195.17
483.14 202.447
483.092 198.747
483.044 184.076
482.996 186.476
482.948 184.0
482.901 191.271
482.853 176.615
482.805 198.498
482.757 219.154
482.709 209.37
482.661 177.684
482.613 175.214
482.566 172.744
482.518 183.654
482.47 189.696
482.422 190.872
482.374 198.125
482.326 183.501
482.278 184.677
482.231 184.639
482.183 185.815
482.135 182.133
482.087 202.732
482.039 182.057
481.991 191.727
481.943 178.341
481.896 197.711
481.848 189.789
481.8 181.867
481.752 178.192
481.704 180.579
481.656 204.775
481.608 185.349
481.56 178.043
481.513 191.326
481.465 164.651
481.417 193.667
481.369 186.365
481.321 185.116
481.273 180.239
481.225 171.735
481.177 181.372
481.13 172.872
481.082 186.131
481.034 178.842
480.986 178.804
480.938 193.261
480.89 184.767
480.842 172.655
480.794 167.79
480.747 177.41
480.699 173.753
480.651 212.32
480.603 203.833
480.555 195.349
480.507 190.486
480.459 183.214
480.411 178.355
480.363 186.751
480.316 193.94
480.268 187.877
480.22 185.43
480.172 187.799
480.124 173.921
480.076 160.043
480.028 172.04
479.98 163.584
479.932 168.36
479.885 163.516
479.837 162.279
479.789 144.218
479.741 179.033
479.693 182.6
479.645 172.953
479.597 156.105
479.549 180.083
479.501 171.643
479.454 189.608
479.406 183.569
479.358 173.934
479.31 176.296
479.262 164.269
479.214 160.638
479.166 159.406
479.118 189.329
479.07 155.745
479.023 170.085
478.975 188.012
478.927 189.17
478.879 178.357
478.831 178.32
478.783 165.12
478.735 166.282
478.687 182.991
478.639 192.519
478.591 185.305
478.544 173.313
478.496 164.912
478.448 159.502
478.4 154.092
478.352 164.808
478.304 157.609
478.256 159.963
478.208 163.51
478.16 168.249
478.112 164.634
478.064 169.371
478.017 170.527
477.969 157.377
477.921 174.031
477.873 162.077
477.825 178.724
477.777 178.686
477.729 166.739
477.681 173.848
477.633 167.859
477.585 167.824
477.537 160.648
477.49 167.753
477.442 170.096
477.394 168.871
477.346 155.757
477.298 150.376
477.25 144.995
477.202 159.223
477.154 169.881
477.106 169.845
477.058 176.934
477.01 172.148
476.962 156.681
476.915 170.889
476.867 154.242
476.819 169.63
476.771 163.665
476.723 173.116
476.675 158.854
476.627 156.45
476.579 151.677
476.531 167.046
476.483 149.244
476.435 156.90800000000002
476.387 164.572
476.339 171.64
476.292 171.603
476.244 185.766
476.196 171.531
476.148 158.485
476.1 164.363
476.052 171.422
476.004 147.746
475.956 168.986
475.908 172.495
475.86 157.102
475.812 168.879
475.764 162.939
475.716 158.183
475.668 146.347
475.621 166.376
475.573 159.262
475.525 142.716
475.477 174.525
475.429 159.1645
475.381 143.804
475.333 167.343
475.285 169.664
475.237 151.959
475.189 161.348
475.141 164.846
475.093 157.748
475.045 165.954
474.997 180.039
474.949 149.413
474.901 156.438
474.854 149.349
474.806 159.899
474.758 165.743
474.71 182.161
474.662 158.622
474.614 159.764
474.566 144.461
474.518 159.696
474.47 163.184
474.422 161.976
474.374 171.329
474.326 179.505
474.278 151.316
474.23 154.802
474.182 165.321
474.134 157.082
474.086 148.843
474.038 171.075
473.99 142.922
473.943 155.776
473.895 149.888
473.847 172.1
473.799 165.041
473.751 162.665
473.703 159.12
473.655 166.105
473.607 167.239
473.559 150.834
473.511 168.337
473.463 139.082
473.415 155.412
473.367 171.735
473.319 155.346
473.271 159.984
473.223 155.28
473.175 168.087
473.127 144.711
473.079 152.847
473.031 149.315
472.983 164.445
472.935 145.754
472.888 145.723
472.84 157.347
472.792 158.479
472.744 146.215
472.696 133.951
472.648 158.377
472.6 149.029
472.552 164.13
472.504 161.768
472.456 171.042
472.408 148.903
472.36 144.219
472.312 169.77
472.264 160.433
472.216 159.236
472.168 162.689
472.12 142.903
472.072 155.65
472.024 142.842
471.976 149.778
471.928 154.39
471.88 160.16
471.832 152.003
471.784 151.971
471.736 148.459
471.688 176.257
471.64 153.033
471.592 163.432
471.544 152.968
471.496 164.521
471.448 156.377
471.401 138.972
471.353 152.837
471.305 152.804
471.257 156.244
471.209 150.425
471.161 160.805
471.113 153.831
471.065 148.016
471.017 149.14
470.969 136.394
470.921 159.477
470.873 145.579
470.825 162.875
470.777 148.9845
470.729 135.094
470.681 133.91
470.633 160.427
470.585 136.161
470.537 138.4385
470.489 140.716
470.441 146.452
470.393 129.127
470.345 154.458
470.297 146.358
470.249 145.175
470.201 135.928
470.153 156.629
470.105 163.504
470.057 144.4785
470.009 125.453
469.961 132.711
469.913 139.969
469.865 147.227
469.817 155.245
469.769 132.217
469.721 162.075
469.673 155.145
469.625 137.877
469.577 170.012
469.529 130.927
469.481 132.42933333333332
469.433 133.93166666666667
469.385 135.434
469.337 153.765
469.289 161.763
469.241 144.523
469.193 137.612
469.145 150.194
469.097 153.6
469.049 150.129
469.001 138.639
468.953 134.028
468.905 137.435
468.857 148.856
468.809 154.548
468.761 157.948
468.713 152.193
468.665 165.889
468.617 153.271
468.569 156.669
468.521 180.645
468.473 161.7495
468.425 142.854
468.377 145.109
468.329 153.074
468.281 162.178
468.233 166.71
468.185 158.683
468.137 159.791
468.089 167.744
468.041 167.708
467.993 153.985
467.945 141.407
467.897 142.517
467.849 153.885
467.801 160.69
467.753 151.54
467.705 149.23
467.657 159.448
467.609 151.443
467.561 152.549
467.513 143.41
467.465 174.104
467.417 146.762
467.369 156.967
467.321 156.933
467.273 170.543
467.225 151.182
467.177 154.559
467.129 148.845
467.081 135.181
467.033 141.966
466.985 140.8
466.937 148.717
466.889 139.605
466.841 139.575
466.793 156.562
466.745 154.26
466.697 146.289
466.649 154.193
466.601 137.157
466.553 160.927
466.505 154.094
466.457 151.795
466.409 151.762
466.36 143.803
466.312 144.904
466.264 142.61
466.216 149.368
466.168 148.205
466.12 147.042
466.072 145.879
466.024 154.892
465.976 143.556
465.928 137.874
465.88 160.442
465.832 172.833
465.784 156.423
465.736 140.013
465.688 158.045
465.64 151.239
465.592 128.639
465.544 156.815
465.496 152.269
465.448 149.981
465.4 164.605
465.352 136.39
465.304 148.757
465.256 147.598
465.208 164.463
465.16 134.02
465.112 137.369
465.064 150.848
465.016 144.062
464.968 148.532
464.92 147.375
464.872 134.971
464.823 155.183
464.775 152.901
464.727 149.496
464.679 162.949
464.631 135.949
464.583 157.262
464.535 154.982
464.487 139.229
464.439 151.547
464.391 143.658
464.343 154.848
464.295 158.18
464.247 141.325
464.199 124.47
464.151 131.54066666666665
464.103 138.61133333333333
464.055 145.682
464.007 141.168
463.959 141.138
463.911 156.786
463.863 156.752
463.815 166.793
463.766 145.492
463.718 151.055
463.67 165.566
463.622 150.99349999999998
463.574 136.421
463.526 144.217
463.478 143.068
463.43 146.389
463.382 150.826
463.334 161.964
463.286 138.477
463.238 141.796
463.19 161.858
463.142 155.127
463.094 139.472
463.046 155.06
462.998 159.487
462.95 143.842
462.902 163.877
462.853 162.727
462.805 145.977
462.757 148.173
462.709 147.027
462.661 140.314
462.613 150.304
462.565 155.836
462.517 151.351
462.469 147.98
462.421 157.96
462.373 163.486
462.325 144.548
462.277 151.187
462.229 121.145
462.181 125.932
462.133 130.719
462.084 135.506
462.036 128.813
461.988 143.218
461.94 149.847
461.892 146.485
461.844 158.658
461.796 156.405
461.748 141.954
461.7 161.88
461.652 149.651
461.604 132.995
461.556 150.694
461.508 139.584
461.46 149.521
461.412 129.557
461.363 143.921
461.315 138.355
461.267 135.005
461.219 132.763
461.171 144.902
461.123 152.611
461.075 149.261
461.027 147.018
460.979 144.775
460.931 145.849
460.883 145.817
460.835 145.785
460.787 131.954
460.738 118.123
460.69 124.34866666666667
460.642 130.57433333333336
460.594 136.8
460.546 154.418
460.498 161.001
460.45 159.864
460.402 144.40050000000002
460.354 128.937
460.306 133.316
460.258 136.592
460.21 145.372
460.162 137.633
460.113 139.805
460.065 152.981
460.017 149.647
459.969 137.513
459.921 142.982
459.873 141.851
459.825 146.218
459.777 127.501
459.729 143.956
459.681 147.221
459.633 155.976
459.584 137.273
459.536 149.32
459.488 151.483
459.44 129.501
459.392 156.903
459.344 144.802
459.296 139.287
459.248 143.642
459.2 149.092
459.152 132.619
459.104 150.123
459.055 120.51
459.007 132.5295
458.959 144.549
458.911 122.621
458.863 129.707
458.815 136.793
458.767 147.705
458.719 152.048
458.671 164.044
458.623 150.344
458.575 136.644
458.526 150.822
458.478 146.418
458.43 159.495
458.382 149.631
458.334 143.046
458.286 147.382
458.238 159.355
458.19 137.496
458.142 144.012
458.094 137.436
458.045 160.306
457.997 155.91
457.949 136.255
457.901 153.662
457.853 161.255
457.805 196.078
457.757 186.06266666666667
457.709 176.04733333333334
457.661 166.03199999999998
457.612 156.01666666666665
457.564 146.00133333333332
457.516 135.986
457.468 145.746
457.42 132.66750000000002
457.372 119.589
457.324 136.954
457.276 146.704
457.228 143.413
457.179 156.416
457.131 144.436
457.083 129.204
457.035 156.313
456.987 155.193
456.939 130.204
456.891 152.956
456.843 143.161
456.795 149.635
456.746 143.098
456.698 158.24
456.65 131.116
456.602 149.504
456.554 150.554
456.506 162.433
456.458 144.5375
456.41 126.642
456.362 131.483
456.313 136.324
456.265 131.967
456.217 144.915
456.169 147.046
456.121 137.285
456.073 149.143
456.025 156.673
455.977 145.836
455.928 144.724
455.88 147.932
455.832 147.899
455.784 142.47
455.736 145.676
455.688 140.249
455.64 152.083
455.592 146.658
455.543 148.782
455.495 142.282
455.447 133.629
455.399 154.071
455.351 135.725
455.303 148.618
455.255 143.202
455.207 162.547
455.158 146.367
455.11 159.247
455.062 143.075
455.014 151.648
454.966 134.41
454.918 138.67950000000002
454.87 142.949
454.822 153.663
454.773 143.961
454.725 149.299
454.677 146.045
454.629 156.749
454.581 177.108
454.533 159.36599999999999
454.485 141.624
454.436 134.084
454.388 139.417
454.34 135.097
454.292 143.643
454.244 147.898
454.196 135.008
454.148 142.477
454.099 142.445
454.051 145.626
454.003 129.536
453.955 151.984
453.907 125.198
453.859 143.358
453.811 149.744
453.763 148.641
453.714 145.401
453.666 131.473
453.618 139.993
453.57 148.51
453.522 154.886
453.474 146.308
453.426 150.547
453.377 139.839
453.329 137.673
453.281 153.648
453.233 142.946
453.185 135.449
453.137 150.347
453.088 143.917
453.04 133.227
452.992 145.985
452.944 155.54
452.896 136.334
452.848 148.017
452.8 146.92
452.751 145.823
452.703 138.342
452.655 132.991
452.607 140.408
452.559 145.694
452.511 150.978
452.463 145.629
452.414 139.22
452.366 150.877
452.318 133.847
452.27 138.066
452.222 139.097
452.174 150.743
452.125 142.219
452.077 142.188
452.029 141.095
451.981 131.518
451.933 148.456
451.885 159.024
451.837 143.6235
451.788 128.223
451.74 138.7865
451.692 149.35
451.644 140.845
451.596 154.577
451.548 133.373
451.499 152.392
451.451 134.372
451.403 142.804
451.355 152.291
451.307 134.282
451.259 143.766
451.21 160.644
451.162 136.306
451.114 162.686
451.066 141.003
451.018 119.32
450.97 120.34899999999999
450.921 121.378
450.873 138.235
450.825 141.369
450.777 128.68
450.729 138.14
450.681 147.6
450.632 159.162
450.584 154.911
450.536 136.966
450.488 148.522
450.44 141.117
450.392 157.932
450.343 144.212
450.295 135.761
450.247 144.148
450.199 152.532
450.151 154.601
450.103 135.64
450.054 153.481
450.006 153.447
449.958 134.499
449.91 137.62
449.862 150.193
449.813 149.11
449.765 144.877
449.717 143.795
449.669 149.01
449.621 139.0125
449.573 129.015
449.524 154.154
449.476 153.071
449.428 145.699
449.38 164.53
449.332 141.444
449.283 138.27
449.235 135.097
449.187 135.067
449.139 127.709
449.091 148.612
449.043 133.93
448.994 146.453
448.946 151.65
448.898 147.433
448.85 141.128
448.802 147.368
448.753 155.694
448.705 158.793
448.657 137.869
448.609 148.28
448.561 147.203
448.513 134.645
448.464 161.747
448.416 151.278
448.368 137.684
448.32 132.439
448.272 133.452
448.223 144.888
448.175 146.10500000000002
448.127 147.322
448.079 148.53900000000002
448.031 149.756
447.982 150.973
447.934 147.817
447.886 149.865
447.838 127.981
447.79 136.275
447.741 129.4855
447.693 122.696
447.645 125.786
447.597 128.876
447.549 131.966
447.501 148.558
447.452 129.829
447.404 155.76
447.356 142.229
447.308 147.387
447.26 134.902
447.211 149.396
447.163 142.102
447.115 147.255
447.067 141.52100000000002
447.019 135.787
446.97 128.502
446.922 151.267
446.874 143.982
446.826 157.413
446.778 149.095
446.729 150.096
446.681 150.063
446.633 138.648
446.585 165.512
446.536 152.03
446.488 159.234
446.44 283.249
446.392 253.8598
446.344 224.47060000000002
446.295 195.0814
446.247 165.6922
446.199 136.303
446.151 149.693
446.103 149.659
446.054 151.689
446.006 159.908
445.958 141.307
445.91 176.336
445.862 147.429
445.813 158.734
445.765 145.302
445.717 134.966
445.669 141.116
445.621 133.876
445.572 140.023
445.524 145.139
445.476 149.222
445.428 148.16
445.379 135.783
445.331 156.321
445.283 143.947
445.235 133.635
445.187 125.383
445.138 147.96
445.09 157.172
445.042 158.164
444.994 147.86
444.946 167.332
444.897 146.767
444.849 149.812
444.801 132.339
444.753 150.771
444.704 141.508
444.656 155.829
444.608 154.769
444.56 150.635
444.512 151.625
444.463 150.567
444.415 154.629
444.367 153.57
444.319 162.748
444.27 156.571
444.222 143.236
444.174 153.432
444.126 163.624
444.078 143.139
444.029 145.151
443.981 160.447
443.933 154.281
443.885 161.396
443.836 149.105
443.788 131.714
443.74 136.788
443.692 152.066
443.643 160.194
443.595 153.017
443.547 151.963
443.499 164.164
443.451 146.797
443.402 148.802
443.354 160.996
443.306 141.604
443.258 151.757
443.209 154.777
443.161 154.742
443.113 151.654
443.065 141.95499999999998
443.016 132.256
442.968 133.7164705882353
442.92 135.1769411764706
442.872 136.6374117647059
442.824 138.09788235294118
442.775 139.55835294117648
442.727 141.01882352941178
442.679 142.47929411764707
442.631 143.93976470588234
442.582 145.40023529411764
442.534 146.86070588235293
442.486 148.32117647058823
442.438 149.78164705882352
442.389 151.24211764705882
442.341 152.70258823529412
442.293 154.1630588235294
442.245 155.6235294117647
442.196 157.084
442.148 165.154
442.1 145.87
442.052 157.99
442.003 154.917
441.955 155.894
441.907 144.726
441.859 156.835
441.81 140.614
441.762 156.764
441.714 161.784
441.666 148.606
441.617 157.668
441.569 150.559
441.521 155.576
441.473 161.601
441.425 149.45
441.376 137.299
441.328 145.342
441.28 159.436
441.232 161.418
441.183 164.407
441.135 146.218
441.087 158.283
441.039 157.239
440.99 163.25
440.942 154.146
440.894 155.118
440.845 141.991
440.797 156.054
440.749 164.071
440.701 153.971
440.652 157.96
440.604 154.907
440.556 145.32
440.508 135.733
440.459 143.744
440.411 139.691
440.363 141.669
440.315 154.695
440.266 140.603
440.218 126.511
440.17 134.17499999999998
440.122 141.839
440.073 149.503
440.025 135.425
439.977 152.444
439.929 156.42
439.88 157.386
439.832 149.333
439.784 153.307
439.736 161.286
439.687 158.245
439.639 175.231
439.591 146.16
439.543 166.144
439.494 149.095
439.446 145.059
439.398 148.027
439.349 143.993
439.301 158.956
439.253 164.917
439.205 162.881
439.156 151.854
439.108 158.812
439.06 153.782
439.012 148.756
438.963 155.709
438.915 164.654
438.867 149.655
438.819 134.656
438.77 150.58
438.722 144.564
438.674 163.47
438.625 151.474
438.577 154.428
438.529 161.366
438.481 151.37
438.432 163.283
438.384 164.241
438.336 166.194
438.288 170.136
438.239 161.145
438.191 175.031
438.143 149.14
438.094 162.028
438.046 156.029
437.998 158.974
437.95 166.884
437.901 144.997
437.853 161.843
437.805 153.865
437.757 165.739
437.708 153.795
437.66 169.631
437.612 176.535
437.563 170.545
437.515 147.706
437.467 171.459
437.419 165.474
437.37 176.333
437.322 166.389
437.274 157.439
437.225 150.473
437.177 166.275
437.129 172.174
437.081 157.295
437.032 158.248
436.984 177.988
436.936 168.062
436.887 157.151
436.839 154.151
436.791 158.067
436.743 167.908
436.694 165.894
436.646 155.984
436.598 178.649
436.549 165.78
436.501 150.944
436.453 163.732
436.405 169.611
436.356 163.657
436.308 162.633
436.26 164.567
436.211 161.574
436.163 161.536
436.115 160.515
436.067 150.633
436.018 166.347
435.97 164.341
435.922 166.271
435.873 154.429
435.825 183.895
435.777 158.291
435.729 172.999
435.68 168.045
435.632 170.954
435.584 167.968
435.535 162.037
435.487 170.836
435.439 169.816
435.39 166.832
435.342 176.605
435.294 168.718
435.246 162.795
435.197 156.874
435.149 168.601
435.101 163.662
435.052 182.241
435.004 172.403
434.956 155.715
434.907 171.345
434.859 174.242
434.811 168.33
434.763 189.817
434.714 167.274
434.666 163.324
434.618 175.997
434.569 177.912
434.521 183.735
434.473 188.578
434.424 195.373
434.376 172.865
434.328 168.919
434.28 176.69
434.231 175.673
434.183 180.512
434.135 180.47
434.086 178.478
434.038 172.586
433.99 167.672
433.941 154.964
433.893 174.416
433.845 169.505
433.796 171.414
433.748 171.374
433.7 166.467
433.652 180.055
433.603 179.04
433.555 178.999
433.507 180.903
433.458 175.027
433.41 182.763
433.362 165.227
433.313 189.481
433.265 168.065
433.217 172.882
433.168 166.045
433.12 171.832
433.072 180.527
433.023 172.723
432.975 184.324
432.927 175.553
432.879 183.269
432.83 170.624
432.782 173.492
432.734 176.359
432.685 176.319
432.637 186.932
432.589 200.446
432.54 199.431
432.492 182.931
432.444 179.018
432.395 181.879
432.347 200.214
432.299 187.597
432.25 189.487
432.202 179.778
432.154 182.635
432.105 190.322
432.057 193.175
432.009 190.233
431.96 185.362
431.912 185.319
431.864 182.382
431.815 179.445
431.767 194.836
431.719 188.041
431.671 187.997
431.622 190.845
431.574 176.346
431.526 173.415
431.477 186.86
431.429 194.52
431.381 187.736
431.332 186.73
431.284 201.121
431.236 195.302
431.187 178.905
431.139 196.173
431.091 199.012
431.042 169.169
430.994 193.154
430.946 183.502
430.897 197.867
430.849 194.94
430.801 192.015
430.752 207.328
430.704 181.37
430.656 197.637
430.607 194.714
430.559 200.423
430.511 195.582
430.462 214.707
430.414 212.741
430.366 200.236
430.317 185.822
430.269 187.694
430.221 195.31
430.172 190.479
430.124 206.703
430.076 209.525
430.027 199.911
429.979 201.777
429.931 198.862
429.882 198.816
429.834 202.592
429.786 209.233
429.737 200.588
429.689 188.126
429.64 209.087
429.592 200.448
429.544 193.721
429.495 215.619
429.447 196.492
429.399 201.215
429.35 207.842
429.302 207.793
429.254 186.78
429.205 206.744
429.157 185.74
429.109 211.409
429.06 205.647
429.012 197.033
428.964 198.89
428.915 213.115
428.867 209.261
428.819 201.604
428.77 201.557
428.722 194.856
428.674 210.966
428.625 212.817
428.577 214.667
428.529 224.113
428.48 209.82
428.432 226.857
428.383 210.671
428.335 213.468
428.287 216.264
428.238 231.386
428.19 220.904
428.142 226.539
428.093 235.015
428.045 218.854
427.997 210.278
427.948 220.646
427.9 219.648
427.852 207.291
427.803 215.76
427.755 215.709
427.707 225.118
427.658 212.772
427.61 225.012
427.561 220.234
427.513 221.127
427.465 213.518
427.416 227.636
427.368 224.75
427.32 228.474
427.271 246.354
427.223 215.155
427.175 236.804
427.126 231.09
427.078 248.01
427.03 218.725
426.981 224.33
426.933 235.585
426.884 227.051
426.836 211.927
426.788 226.003
426.739 245.721
426.691 233.427
426.643 233.372
426.594 241.785
426.546 240.788
426.498 252.956
426.449 247.256
426.401 234.039
426.352 262.175
426.304 232.99
426.256 258.295
426.207 231.003
426.159 226.255
426.111 247.789
426.062 241.162
426.014 245.797
425.965 253.243
425.917 228.803
425.869 240.936
425.82 246.503
425.772 238.012
425.724 252.009
425.675 256.633
425.627 247.209
425.579 248.087
425.53 248.029
425.482 261.071
425.433 243.235
425.385 251.595
425.337 243.12
425.288 265.5
425.24 243.941
425.192 254.162
425.143 261.576
425.095 254.043
425.046 251.182
424.998 261.392
424.95 276.263
424.901 263.135
424.853 256.543
424.805 241.56
424.756 255.49
424.708 250.769
424.659 273.078
424.611 277.673
424.563 262.702
424.514 262.64
424.466 265.372
424.418 265.31
424.369 263.386
424.321 268.907
424.272 255.82
424.224 251.109
424.176 277.085
424.127 270.513
424.079 251.861
424.03 279.677
423.982 287.972
423.934 278.617
423.885 272.98
423.837 273.844
423.789 253.362
423.74 267.22
423.692 279.216
423.643 290.279
423.595 265.177
423.547 295.704
423.498 276.173
423.45 296.491
423.401 283.453
423.353 263.012
423.305 303.689
423.256 292.509
423.208 289.664
423.159 278.493
423.111 287.677
423.063 297.782
423.014 289.39
422.966 281.003
422.918 285.557
422.869 272.555
422.821 302.049
422.772 288.125
422.724 281.595
422.676 289.835
422.627 296.227
422.579 301.692
422.53 301.621
422.482 299.706
422.434 333.747
422.385 306.938
422.337 304.101
422.288 299.422
422.24 301.194
422.192 307.569
422.143 325.909
422.095 339.638
422.046 317.473
421.998 287.958
421.95 299.847
421.901 330.121
421.853 314.414
421.804 302.391
421.756 322.536
421.708 308.679
421.659 307.687
421.611 340.672
421.562 332.329
421.514 328.579
421.466 326.666
421.417 344.936
421.369 327.428
421.32 332.852
421.272 319.939
421.224 328.112
421.175 324.369
421.127 330.705
421.078 340.701
421.03 326.885
420.982 340.539
420.933 356.017
420.885 350.443
420.836 343.956
420.788 354.849
420.74 336.478
420.691 350.11
420.643 377.445
420.594 360.909
420.546 345.294
420.498 346.125
420.449 335.087
420.401 336.833
420.352 326.714
420.304 344.884
420.255 350.275
420.207 360.224
420.159 341.903
420.11 376.46
420.062 376.371
420.013 360.793
419.965 374.37
419.917 372.46
419.868 365.088
419.82 366.821
419.771 375.834
419.723 362.098
419.675 361.102
419.626 379.204
419.578 404.57
419.529 375.388
419.481 397.107
419.432 381.569
419.384 386.927
419.336 389.56
419.287 364.047
419.239 401.173
419.19 400.171
419.142 391.91
419.094 386.375
419.045 409.859
418.997 405.229
418.948 400.601
418.9 417.722
418.851 391.351
418.803 407.56
418.755 385.732
418.706 405.555
418.658 405.459
418.609 411.696
418.561 395.315
418.512 421.448
418.464 421.347
418.416 422.151
418.367 428.376
418.319 409.3
418.27 431.785
418.222 419.942
418.174 440.608
418.125 436.892
418.077 464.764
418.028 425.857
417.98 451.012
417.931 422.948
417.883 444.486
417.835 457.9
417.786 446.977
417.738 456.781
417.689 463.877
417.641 470.07
417.592 447.45
417.544 464.445
417.496 445.437
417.447 490.313
417.399 468.609
417.35 467.598
417.302 459.395
417.253 478.16
417.205 488.829
417.157 479.728
417.108 469.734
417.06 482.193
417.011 491.055
416.963 489.142
416.914 494.409
416.866 484.423
416.817 505.832
416.769 478.811
416.721 493.936
416.672 519.808
416.624 475.779
416.575 484.623
416.527 490.776
416.478 514.833
416.43 518.291
416.382 537.855
416.333 528.779
416.285 512.551
416.236 513.323
416.188 507.835
416.139 538.105
416.091 538.87
416.042 556.609
415.994 518.067
415.946 512.585
415.897 532.996
415.849 549.827
415.8 529.171
415.752 532.613
415.703 564.595
415.655 565.351
415.607 540.253
415.558 573.101
415.51 559.598
415.461 552.336
415.413 556.657
415.364 568.989
415.316 589.328
415.267 545.576
415.219 589.935
415.171 605.806
415.122 597.656
415.074 570.837
415.025 608.925
414.977 570.563
414.928 601.524
414.88 601.38
414.831 572.816
414.783 612.633
414.734 598.283
414.686 621.213
414.638 597.108
414.589 616.479
414.541 603.028
414.492 625.935
414.444 631.989
414.395 601.707
414.347 604.22
414.298 626.218
414.25 634.037
414.202 652.476
414.153 647.894
414.105 632.695
414.056 643.158
414.008 646.541
413.959 631.353
413.911 657.722
413.862 611.605
413.814 677.729
413.765 674.032
413.717 667.687
413.669 691.366
413.62 675.31
413.572 647.788
413.523 639.691
413.475 701.285
413.426 711.699
413.378 674.496
413.329 685.793
413.281 695.321
413.232 672.246
413.184 681.773
413.135 708.908
413.087 699.053
413.039 693.603
412.99 704.875
412.942 736.377
412.893 704.535
412.845 714.917
412.796 708.59
412.748 758.518
412.699 710.006
412.651 752.881
412.602 753.577
412.554 756.908
412.505 740.045
412.457 753.031
412.409 751.094
412.36 760.562
412.312 750.731
412.263 772.47
412.215 781.926
412.166 770.344
412.118 754.386
412.069 789.242
412.021 796.933
411.972 761.719
411.924 812.303
411.875 794.604
411.827 776.039
411.778 785.473
411.73 771.291
411.682 820.938
411.633 800.636
411.585 802.189
411.536 837.814
411.488 802.674
411.439 835.662
411.391 830.221
411.342 848.349
411.294 866.467
411.245 855.789
411.197 835.522
411.148 890.252
411.1 863.012
411.051 858.446
411.003 846.91
410.954 871.967
410.906 829.082
410.857 860.225
410.809 847.83
410.761 912.893
410.712 903.101
410.664 881.136
410.615 905.272
410.567 898.966
410.518 896.14
410.47 917.647
410.421 919.162
410.373 922.413
410.324 940.425
410.276 921.965
410.227 958.194
410.179 938.004
410.13 955.126
410.082 935.814
410.033 962.466
409.985 962.232
409.936 948.998
409.888 960.898
409.839 960.664
409.791 981.215
409.742 965.392
409.694 953.904
409.646 983.961
409.597 975.935
409.549 979.158
409.5 1001.4
409.452 966.577
409.403 1012.15
409.355 1047.34
409.306 1023.76
409.258 984.639
409.209 1045.71
409.161 1004.01
409.112 1079.72
409.064 1042.36
409.015 1036.06
408.967 1028.05
408.918 1045.91
408.87 1036.17
408.821 1082.45
408.773 1088.22
408.724 1085.37
408.676 1092.86
408.627 1103.78
408.579 1096.63
408.53 1087.76
408.482 1111.58
408.433 1114.75
408.385 1127.38
408.336 1127.1
408.288 1154.33
408.239 1141.16
408.191 1132.29
408.142 1167.23
408.094 1169.52
408.045 1152.07
407.997 1156.93
407.948 1170.38
407.9 1189.82
407.851 1154.37
407.803 1181.53
407.754 1203.53
407.706 1220.37
407.657 1219.22
407.609 1206.07
407.56 1251.16
407.512 1227.74
407.463 1226.58
407.415 1282.76
407.366 1238.82
407.318 1294.97
407.269 1254.46
407.221 1240.47
407.172 1258.12
407.124 1287.72
407.075 1319.01
407.027 1314.42
406.978 1297.02
406.93 1300.12
406.881 1306.63
406.833 1329.34
406.784 1324.75
406.736 1311.64
406.687 1308.76
406.639 1377.48
406.59 1385.67
406.542 1375.96
406.493 1397.76
406.445 1394.87
406.396 1375.8
406.348 1390.78
406.299 1390.44
406.251 1434.34
406.202 1400.81
406.154 1413.22
406.105 1485.14
406.057 1398.08
406.008 1436.83
405.96 1483.19
405.911 1493.02
405.863 1486.71
405.814 1505.02
405.766 1495.32
405.717 1500.89
405.669 1523.42
405.62 1477.26
405.572 1523.52
405.523 1517.22
405.475 1560.91
405.426 1521.55
405.378 1566.07
405.329 1619.03
405.281 1590.7
405.232 1624.16
405.184 1602.61
405.135 1632.67
405.087 1607.74
405.038 1587.05
404.99 1635.69
404.941 1591.34
404.893 1662.77
404.844 1669.12
404.796 1660.26
404.747 1674.21
404.699 1705.87
404.65 1710.51
404.602 1729.5
404.553 1697.02
404.505 1737.92
404.456 1812.52
404.407 1728.64
404.359 1742.54
404.31 1807.81
404.262 1807.37
404.213 1797.66
404.165 1756.81
404.116 1811.93
404.068 1767.73
404.019 1817.76
403.971 1838.34
403.922 1853.86
403.874 1896.27
403.825 1870.59
403.777 1876.01
403.728 1884.79
403.68 1926.31
403.631 1930.87
403.583 1926.2
403.534 1955.09
403.486 1937.83
403.437 1960.0
403.389 1986.35
403.34 2031.96
403.292 2013.86
403.243 1986.55
403.194 1993.6
403.146 2024.93
403.097 1985.92
403.049 2061.6
403.0 2070.29
402.952 2058.07
402.903 2061.74
402.855 2125.62
402.806 2074.1
402.758 2096.99
402.709 2120.7
402.661 2124.35
402.612 2091.26
402.564 2176.74
402.515 2175.37
402.467 2194.86
402.418 2218.51
402.37 2252.16
402.321 2224.09
402.272 2177.68
402.224 2262.99
402.175 2224.1
402.127 2240.21
402.078 2264.65
402.03 2280.74
401.981 2310.98
401.933 2266.29
401.884 2319.82
401.836 2326.73
401.787 2269.6
401.739 2316.43
401.69 2354.93
401.642 2384.26
401.593 2382.01
401.544 2350.68
401.496 2379.17
401.447 2438.35
401.399 2410.36
401.35 2398.97
401.302 2479.68
401.253 2430.13
401.205 2446.11
401.156 2453.79
401.108 2487.99
401.059 2488.2
401.011 2483.44
400.962 2561.5
400.913 2548.45
400.865 2472.49
400.816 2574.49
400.768 2515.94
400.719 2603.82
400.671 2536.19
400.622 2655.43
400.574 2628.33
400.525 2563.22
400.477 2646.02
400.428 2696.57
400.38 2624.89
400.331 2662.21
400.282 2644.22
400.234 2702.97
400.185 2746.84
400.137 2651.32
400.088 2697.65
400.04 2666.48
399.991 2686.42
399.943 2782.97
399.894 2769.1
399.846 2775.0
399.797 2778.42
399.748 2793.37
399.7 2770.46
399.651 2793.62
399.603 2830.76
399.554 2830.05
399.506 2877.02
399.457 2886.99
399.409 2880.52
399.36 2972.62
399.312 2944.78
399.263 2930.09
399.214 2969.58
399.166 2972.94
399.117 2954.97
399.069 2948.49
399.02 3046.15
398.972 2999.49
398.923 2986.45
398.875 3057.8
398.826 3048.85
398.777 3049.73
398.729 3029.32
398.68 3085.86
398.632 3098.18
398.583 3121.95
398.535 3166.16
398.486 3162.92
398.438 3139.24
398.389 3127.01
398.341 3128.68
398.292 3148.32
398.243 3212.05
398.195 3138.58
398.146 3236.57
398.098 3220.26
398.049 3234.14
398.001 3334.47
397.952 3312.44
397.904 3274.92
397.855 3353.98
397.806 3326.25
397.758 3384.07
397.709 3361.24
397.661 3396.22
397.612 3401.89
397.564 3427.89
397.515 3479.92
397.466 3409.91
397.418 3492.82
397.369 3439.91
397.321 3504.07
397.272 3512.13
397.224 3495.82
397.175 3524.18
397.127 3584.2
397.078 3641.75
397.029 3581.59
396.981 3650.48
396.932 3729.06
396.884 3714.34
396.835 3679.35
396.787 3852.71
396.738 3691.29
396.69 3782.72
396.641 3848.19
396.592 3806.74
396.544 3801.74
396.495 3787.02
396.447 3897.74
396.398 3914.56
396.35 3887.69
396.301 3940.08
396.252 3964.15
396.204 3960.73
396.155 3966.2
396.107 3999.94
396.058 4086.15
396.01 4057.67
395.961 4092.17
395.912 4062.09
395.864 4160.3
395.815 4139.09
395.767 4154.98
395.718 4199.08
395.67 4223.82
395.621 4210.67
395.572 4261.16
395.524 4260.9
395.475 4308.13
395.427 4331.2
395.378 4382.41
395.33 4442.45
395.281 4433.29
395.232 4431.37
395.184 4419.0
395.135 4504.69
395.087 4498.74
395.038 4553.03
394.99 4620.95
394.941 4558.77
394.892 4738.22
394.844 4731.41
394.795 4715.78
394.747 4737.05
394.698 4779.96
394.65 4808.42
394.601 4824.04
394.552 4814.81
394.504 4871.27
394.455 4921.3
394.407 4943.28
394.358 4981.26
394.31 4986.4
394.261 4988.34
394.212 5029.48
394.164 5053.0
394.115 5084.5
394.067 5231.08
394.018 5177.02
393.969 5191.69
393.921 5282.23
393.872 5288.88
393.824 5344.22
393.775 5324.52
393.727 5398.97
393.678 5409.57
393.629 5483.96
393.581 5444.31
393.532 5501.91
393.484 5618.45
393.435 5592.34
393.386 5615.61
393.338 5621.36
393.289 5635.86
393.241 5698.1
393.192 5730.08
393.144 5731.81
393.095 5883.84
393.046 5791.72
392.998 5836.35
392.949 5844.41
392.901 5931.11
392.852 5940.73
392.803 5987.66
392.755 5967.89
392.706 6032.25
392.658 5961.7
392.609 6049.82
392.561 6057.8
392.512 6180.74
392.463 6156.98
392.415 6246.55
392.366 6218.03
392.318 6222.0
392.269 6288.52
392.22 6352.63
392.172 6358.93
392.123 6309.85
392.075 6437.98
392.026 6430.02
391.977 6528.79
391.929 6463.12
391.88 6440.14
391.832 6402.96
391.783 6550.61
391.734 6503.15
391.686 6567.81
391.637 6626.91
391.589 6528.18
391.54 6594.36
391.492 6632.12
391.443 6746.33
391.394 6709.15
391.346 6720.84
391.297 6732.52
391.249 6857.62
391.2 6756.66
391.151 6893.49
391.103 6777.63
391.054 6852.22
391.006 6929.14
390.957 6902.22
390.908 6889.46
390.86 6973.38
390.811 6988.11
390.763 6940.76
390.714 6979.84
390.665 6977.28
390.617 7023.39
390.568 7065.55
390.52 7070.03
390.471 7101.18
390.422 7142.5
390.374 7078.75
390.325 7122.41
390.277 7151.15
390.228 7144.63
390.179 7171.01
390.131 7293.68
390.082 7262.86
390.034 7244.57
389.985 7248.99
389.936 7232.28
389.888 7335.22
389.839 7315.37
389.791 7385.42
389.742 7364.0
389.693 7389.46
389.645 7407.89
389.596 7414.59
389.548 7498.56
389.499 7395.2
389.45 7399.55
389.402 7545.09
389.353 7501.05
389.305 7557.61
389.256 7605.56
389.207 7670.63
389.159 7634.4
389.11 7654.26
389.061 7649.97
389.013 7657.35
388.964 7635.94
388.916 7735.91
388.867 7706.71
388.818 7835.39
388.77 7831.83
388.721 7831.38
388.673 7855.8
388.624 7888.75
388.575 7868.09
388.527 7851.33
388.478 7865.62
388.43 7942.77
388.381 7908.93
388.332 8007.74
388.284 8037.48
388.235 8023.8
388.186 8099.25
388.138 8125.85
388.089 8150.88
388.041 8169.7
387.992 8092.51
387.943 8238.28
387.895 8281.06
387.846 8227.1
387.798 8303.89
387.749 8174.17
387.7 8408.64
387.652 8428.89
387.603 8339.42
387.555 8501.82
387.506 8472.61
387.457 8501.32
387.409 8516.9
387.36 8605.77
387.311 8565.76
387.263 8565.11
387.214 8586.82
387.166 8730.31
387.117 8697.24
387.068 8759.73
387.02 8805.25
386.971 8983.19
386.922 8861.55
386.874 8973.19
386.825 8920.87
386.777 8994.74
386.728 8948.59
386.679 9092.39
386.631 9206.89
386.582 9153.04
386.534 9182.96
386.485 9291.21
386.436 9276.53
386.388 9418.48
386.339 9389.2
386.29 9465.05
386.242 9467.22
386.193 9491.63
386.145 9538.26
386.096 9585.63
386.047 9665.93
385.999 9582.23
385.95 9711.51
385.901 9778.7
385.853 9826.71
385.804 9800.45
385.756 9927.24
385.707 9885.67
385.658 9997.08
385.61 10045.0
385.561 10083.7
385.512 10099.4
385.464 10233.6
385.415 10285.9
385.367 10277.1
385.318 10352.4
385.269 10377.2
385.221 10402.0
385.172 10480.9
385.123 10564.4
385.075 10532.7
385.026 10624.5
384.978 10601.2
384.929 10782.0
384.88 10836.4
384.832 10805.4
384.783 10797.3
384.734 10831.8
384.686 10931.7
384.637 11046.8
384.588 11075.9
384.54 11040.3
384.491 11198.6
384.443 11081.0
384.394 11180.7
384.345 11187.7
384.297 11243.2
384.248 11290.4
384.199 11356.6
384.151 11374.1
384.102 11375.0
384.053 11415.2
384.005 11414.6
383.956 11620.0
383.908 11573.8
383.859 11572.4
383.81 11663.3
383.762 11567.1
383.713 11720.1
383.664 11758.7
383.616 11927.3
383.567 11775.3
383.518 11769.2
383.47 11830.4
383.421 11808.4
383.373 11945.2
383.324 12035.7
383.275 11918.6
383.227 12023.5
383.178 12126.0
383.129 12141.0
383.081 12131.0
383.032 12121.9
382.983 12181.3
382.935 12086.2
382.886 12181.8
382.838 12315.0
382.789 12272.6
382.74 12341.0
382.692 12267.0
382.643 12303.7
382.594 12313.3
382.546 12340.2
382.497 12298.7
382.448 12420.3
382.4 12444.1
382.351 12267.3
382.302 12501.5
382.254 12295.5
382.205 12534.8
382.157 12440.0
382.108 12401.5
382.059 12393.7
382.011 12383.0
381.962 12562.0
381.913 12478.5
381.865 12467.8
381.816 12427.9
381.767 12453.1
381.719 12528.5
381.67 12457.8
381.621 12371.5
381.573 12306.2
381.524 12392.0
381.475 12308.0
381.427 12289.1
381.378 12418.2
381.33 12396.3
381.281 12309.4
381.232 12308.4
381.184 12312.7
381.135 12211.7
381.086 12400.3
381.038 12174.7
380.989 12131.3
380.94 12191.5
380.892 12132.4
380.843 12174.7
380.794 12051.6
380.746 11955.3
380.697 11916.5
380.648 11991.5
380.6 11909.5
380.551 11824.5
380.502 11918.9
380.454 11880.1
380.405 11755.8
380.357 11802.5
380.308 11766.0
380.259 11670.0
380.211 11593.5
380.162 11566.7
380.113 11574.8
380.065 11488.6
380.016 11516.8
379.967 11401.8
379.919 11498.9
379.87 11231.9
379.821 11398.0
379.773 11091.2
379.724 11193.5
379.675 11107.6
379.627 11104.0
379.578 11078.1
379.529 10976.8
379.481 10948.0
379.432 10789.8
379.383 10719.7
379.335 10753.1
379.286 10669.0
379.237 10626.3
379.189 10635.3
379.14 10672.4
379.091 10476.9
379.043 10497.8
378.994 10389.15
378.945 10280.5
378.897 10234.3
378.848 10119.5
378.799 10070.4
378.751 10033.9
378.702 9951.66
378.653 9608.2
378.605 9608.2
378.556 9608.2
378.507 9608.2
378.459 9608.2
378.41 9477.67
378.362 9542.85
378.313 9388.87
378.264 9301.13
378.216 9251.65
378.167 9158.11
378.118 8963.25
378.07 8888.2
378.021 8874.12
377.972 8706.64
377.924 8631.71
377.875 8519.064999999999
377.826 8406.42
377.778 8325.76
377.729 8201.89
377.68 8166.03
377.632 8193.92
377.583 7955.19
377.534 7931.13
377.486 7783.36
377.437 7684.71
377.388 7504.16
377.34 7537.3
377.291 7438.05
377.242 7332.28
377.194 7101.58
377.145 7025.195
377.096 6948.81
377.047 6734.46
376.999 6788.91
376.95 6641.86
376.901 6518.97
376.853 6449.41
376.804 6290.16
376.755 6219.96
376.707 6095.13
376.658 6065.1
376.609 5863.86
376.561 5786.945
376.512 5710.03
376.463 5712.9
376.415 5482.85
376.366 5447.93
376.317 5394.12
376.269 5178.88
376.22 5160.07
376.171 5011.15
376.123 5008.37
376.074 4898.08
376.025 4806.72
375.977 4751.72
375.928 4649.23
375.879 4546.74
375.831 4554.24
375.782 4384.03
375.733 4303.83
375.685 4273.7
375.636 4135.59
375.587 4104.79
375.539 4010.26
375.49 3964.3
375.441 3823.52
375.393 3763.88
375.344 3717.29
375.295 3641.815
375.247 3566.34
375.198 3528.52
375.149 3456.75
375.1 3437.77
375.052 3355.22
375.003 3291.49
374.954 3214.8
374.906 3204.57
374.857 3195.06
374.808 3087.43
374.76 3016.66
374.711 2945.89
374.662 2860.04
374.614 2844.87
374.565 2803.76
374.516 2651.02
374.468 2665.44
374.419 2629.45
374.37 2584.13
374.322 2497.09
374.273 2440.6850000000004
374.224 2384.28
374.176 2385.09
374.127 2349.95
374.078 2232.19
374.029 2197.83
373.981 2151.28
373.932 2112.65
373.883 2113.52
373.835 2050.52
373.786 2032.04
373.737 1992.0549999999998
373.689 1952.07
373.64 1843.3
373.591 1846.39
373.543 1788.57
373.494 1766.61
373.445 1716.72
373.397 1673.31
373.348 1638.155
373.299 1603.0
373.25 1596.14
373.202 1580.69
373.153 1568.12
373.104 1505.51
373.056 1452.94
373.007 1454.69
372.958 1430.73
372.91 1368.23
372.861 1365.01
372.812 1315.4099999999999
372.764 1265.81
372.715 1281.17
372.666 1220.21
372.618 1230.58
372.569 1188.91
372.52 1186.46
372.471 1166.2
372.423 1116.03
372.374 1119.29
372.325 1080.56
372.277 1055.36
372.228 1025.2
372.179 1029.91
372.131 1004.7535
372.082 979.597
372.033 885.524
371.985 908.024
371.936 885.052
371.887 854.281
371.838 860.443
371.79 823.307
371.741 822.378
371.692 819.322
371.644 816.266
371.595 780.598
371.546 737.862
371.498 745.46
371.449 760.847
371.4 725.94
371.351 706.629
371.303 684.8565
371.254 663.084
371.205 665.03
371.157 630.195
371.108 606.692
371.059 604.41
371.011 604.248
370.962 609.033
370.913 593.33
370.864 571.281
370.816 576.07
370.767 547.3395
370.718 518.609
370.67 528.346
370.621 507.049
370.572 504.798
370.524 501.139
370.475 503.119
370.426 487.486
370.377 464.115
370.329 451.317
370.28 431.487
370.231 453.187
370.183 426.69050000000004
370.134 400.194
370.085 405.009
370.037 420.366
369.988 399.17
369.939 389.93
369.89 394.742
369.842 378.486
369.793 382.597
369.744 374.774
369.696 361.346
369.647 347.918
369.598 330.995
369.549 343.525
369.501 332.219
369.452 335.633
369.403 334.843
369.355 317.945
369.306 311.559
369.257 312.875
369.209 310.692
369.16 292.7745
369.111 274.857
369.062 297.856
369.014 283.097
368.965 291.407
368.916 271.069
368.868 273.091
368.819 261.147
368.77 263.172
368.721 274.965
368.673 257.449
368.624 255.984
368.575 257.31
368.527 255.15
368.478 241.839
368.429 235.503
368.38 260.517
368.332 234.68
368.283 226.265
368.234 217.85
368.186 218.487
368.137 241.384
368.088 224.629
368.04 221.787
367.991 210.606
367.942 212.634
367.893 219.524
367.845 207.6615
367.796 195.799
367.747 192.275
367.699 188.06
367.65 205.353
367.601 187.265
367.552 189.295
367.504 201.721
367.455 212.755
367.406 188.449
367.358 191.861
367.309 188.347
367.26 187.604
367.211 182.017
367.163 191.654
367.114 169.468
367.065 183.253
367.016 165.92
366.968 170.022
366.919 152.702
366.87 156.806
366.822 174.719
366.773 167.077
366.724 158.059
366.675 161.467
366.627 166.942
366.578 166.207
366.529 161.336
366.481 146.817
366.432 157.114
366.383 159.138
366.334 148.764
366.286 154.921
366.237 161.763
366.188 146.579
366.14 143.1005
366.091 139.622
366.042 137.521
365.993 145.046
365.945 152.566
365.896 144.28
365.847 131.191
365.798 145.576
365.75 141.417
365.701 147.556
365.652 142.713
365.604 133.071
365.555 145.379
365.506 141.911
365.457 135.019
365.409 142.52
365.36 134.26350000000002
365.311 126.007
365.263 133.504
365.214 122.516
365.165 127.957
365.116 124.502
365.068 131.307
365.019 136.741
364.97 123.717
364.921 125.05
364.873 129.799
364.824 129.763
364.775 122.218
364.727 124.232
364.678 123.516
364.629 122.8
364.58 115.947
364.532 115.233
364.483 124.064
364.434 118.9205
364.385 113.777
364.337 123.962
364.288 130.738
364.239 125.257
364.191 121.139
364.142 116.344
364.093 122.434
364.044 119.0
363.996 116.929
363.947 111.46
363.898 112.109
363.849 109.7015
363.801 107.294
363.752 109.981
363.703 123.525
363.655 108.564
363.606 108.534
363.557 121.39
363.508 110.509
363.46 110.479
363.411 116.547
363.362 108.727
363.313 100.907
363.265 100.88
363.216 117.097
363.167 108.268
363.118 119.739
363.07 108.209
363.021 102.095
362.972 102.743
362.924 105.418
362.875 101.336
362.826 106.036
362.777 114.109
362.729 108.003
362.68 101.9
362.631 101.198
362.582 91.7274
362.534 100.468
362.485 103.811
362.436 106.478
362.387 102.407
362.339 99.6848
362.29 101.004
362.241 103.669
362.192 112.39
362.144 104.286
362.095 101.567
362.046 90.7797
361.998 104.2
361.949 110.892
361.9 97.4242
361.851 106.13
361.803 99.0518
361.754 91.9736
361.705 100.673
361.656 112.723
361.608 96.5936
361.559 98.579
361.51 100.563
361.461 101.206
361.413 95.4844
361.364 89.7628
361.315 97.7744
361.266 99.7562
361.218 96.3822
361.169 104.385
361.12 111.046
361.071 104.997
361.023 97.6138
360.974 102.266
360.925 94.2192
360.876 100.874
360.828 95.50485
360.779 90.1357
360.73 92.7809
360.681 102.098
360.633 101.403
360.584 99.3739
360.535 102.014
360.487 91.99
360.438 81.966
360.389 90.6042
360.34 105.898
360.292 99.8762
360.243 91.86305
360.194 83.8499
360.145 95.1369
360.097 85.7992
360.048 96.4145
359.999 89.7405
359.95 99.6843
359.902 94.3419
359.853 94.3159
359.804 92.962
359.755 85.6343
359.707 91.5835
359.658 98.8565
359.609 93.523
359.56 98.139
359.512 90.8199
359.463 80.1911
359.414 95.4078
359.365 90.0825
359.317 83.4358
359.268 97.977
359.219 98.6119
359.17 85.3519
359.122 93.2659
359.073 97.2078
359.024 89.909
358.975 85.9187
358.927 91.1809
358.878 88.5136
358.829 83.2063
358.78 91.1055
358.732 96.3604
358.683 102.932
358.634 96.9669
358.585 87.0483
358.537 90.3207
358.488 87.6594
358.439 89.6119
358.39 95.5158
358.342 85.6112
358.293 92.1712
358.244 89.513
358.195 85.5403
358.147 92.7527
358.098 90.7542
358.049 86.1269
358.0 83.1462
357.951 80.1655
357.903 80.8002
357.854 91.2856
357.805 92.5735
357.756 90.5788
357.708 82.0233
357.659 88.5607
357.61 91.8153
357.561 88.5117
357.513 87.1763
357.464 96.9813
357.415 85.8178
357.366 91.6883
357.318 85.1156
357.269 85.092
357.22 90.9578
357.171 87.6617
357.123 94.8315
357.074 87.6132
357.025 87.5889
356.976 88.8716
356.928 80.3542
356.879 88.8223
356.83 83.5743
356.781 90.7313
356.733 88.7485
356.684 82.8524
356.635 84.1339
356.586 79.5464
356.538 76.917
356.489 82.7606
356.44 85.995
356.391 83.366
356.342 81.3895
356.294 77.137
356.245 72.8845
356.196 80.6711
356.147 90.4046
356.099 85.828
356.05 78.98075
356.001 72.1335
355.952 85.1069
355.904 84.4337
355.855 84.4103
355.806 94.1238
355.757 84.3634
355.709 80.4473
355.66 86.2622
355.611 75.2153
355.562 69.3604
355.513 71.9333
355.465 81.6313
355.416 69.9502
355.367 73.81469999999999
355.318 77.6792
355.27 75.7161
355.221 76.989
355.172 86.0226
355.123 82.7656
355.075 72.3997
355.026 84.012
354.977 80.1122
354.928 75.56995
354.88 71.0277
354.831 80.6908
354.782 79.05539999999999
354.733 77.42
354.684 86.4282
354.636 83.1801
354.587 82.5123
354.538 77.3337
354.489 74.0908
354.441 79.2228
354.392 73.4055
354.343 80.4661
354.294 75.9388
354.246 86.2115
354.197 77.826
354.148 78.4473
354.099 67.4972
354.05 78.4035
354.002 66.8171
353.953 69.3669
353.904 71.9167
353.855 74.4643
353.807 73.16
353.758 74.4227
353.709 76.9675
353.66 83.9994
353.612 72.4372
353.563 71.13560000000001
353.514 69.834
353.465 80.703
353.416 72.9965
353.368 77.4571
353.319 75.5156
353.27 77.4138
353.221 74.8337
353.173 83.1253
353.124 69.0386
353.075 81.8006
353.026 73.4722
352.977 79.2
352.929 70.2384
352.88 63.1968
352.831 78.4953
352.782 80.3873
352.734 81.6404
352.685 65.6766
352.636 76.495
352.587 75.8362
352.539 73.2666
352.49 68.1507
352.441 78.9562
352.392 80.8437
352.343 77.6391
352.295 79.526
352.246 78.2316
352.197 76.9379
352.148 78.1877
352.1 69.9043
352.051 69.2494
352.002 70.5002
351.953 68.2587
351.904 66.0172
351.856 68.53635
351.807 71.0555
351.758 70.4013
351.709 69.7474
351.661 75.4328
351.612 66.5397
351.563 70.9557
351.514 72.2025
351.465 72.1822
351.417 71.5289
351.368 70.8759
351.319 76.5498
351.27 69.25695
351.221 61.9641
351.173 64.79035
351.124 67.6166
351.075 74.5469
351.026 62.526
350.978 67.5595
350.929 65.0156
350.88 69.4146
350.831 75.0729
350.782 71.8983
350.734 62.4204
350.685 63.6635
350.636 66.1661
350.587 74.3372
350.539 66.7586
350.49 65.4806
350.441 70.4977
350.392 67.9607
350.343 65.4252
350.295 74.8404
350.246 71.0469
350.197 67.8841
350.148 67.2365
350.099 61.5638
350.051 72.8508
350.002 72.8303
349.953 70.9267
349.904 65.8867
349.856 70.8866
349.807 76.5109
349.758 65.2039
349.709 69.573
349.66 75.1928
349.612 76.4244
349.563 65.1303
349.514 63.8597
349.465 68.8489
349.416 74.4609
349.368 67.5588
349.319 73.168
349.27 76.8985
349.221 68.7516
349.173 73.7308
349.124 78.0826
349.075 68.6932
349.026 66.17725
348.977 63.6613
348.929 71.1307
348.88 66.1204
348.831 71.714
348.782 68.5766
348.733 69.8037
348.685 75.3915
348.636 74.7473
348.587 74.1034
348.538 65.9893
348.489 64.1036
348.441 69.0629
348.392 65.3112
348.343 73.3766
348.294 66.5175
348.246 68.3631
348.197 66.4798
348.148 68.9454
348.099 64.5792
348.05 68.9063
348.002 70.7486
347.953 73.2102
347.904 63.2654
347.855 63.2475
347.806 62.6098
347.758 61.9721
347.709 68.1499
347.66 64.4144
347.611 57.5849
347.562 65.6158
347.514 66.8348
347.465 62.4852
347.416 70.5078
347.367 66.1595
347.318 66.7589
347.27 64.268
347.221 65.4853
347.172 49.4088
347.123 56.804
347.074 70.3675
347.026 66.645
346.977 68.4767
346.928 65.3736
346.879 63.5053
346.831 64.1036
346.782 72.096
346.733 70.2274
346.684 67.1281
346.635 62.7992
346.587 67.0899
346.538 62.45715
346.489 57.8244
346.44 63.9576
346.391 63.9394
346.343 65.7651
346.294 64.5174
346.245 61.4276
346.196 55.8832
346.147 63.8483
346.099 73.0363
346.05 64.4254
346.001 56.4328
345.952 61.3225
345.903 61.305
345.855 66.1905
345.806 72.2986
345.757 65.5421
345.708 58.7856
345.659 59.381
345.611 59.3641
345.562 62.4062
345.513 65.4466
345.464 60.5361
345.415 61.1301
345.367 68.4462
345.318 61.0952
345.269 66.5747
345.22 72.0511
345.171 65.3177
345.123 58.5843
345.074 55.5171
345.025 60.9904
344.976 60.9729
344.927 59.1268
344.879 60.938
344.83 62.139
344.781 59.6851
344.732 61.4946
344.683 68.7811
344.635 63.8934
344.586 59.0084
344.537 68.1139
344.488 72.9582
344.439 59.5655
344.39 57.7255
344.342 54.6716
344.293 61.9434
344.244 62.5328
344.195 69.1912
344.146 60.0698
344.098 59.446
344.049 55.184
344.0 64.2618
343.951 58.7888
343.902 62.4073
343.854 62.3894
343.805 70.2436
343.756 56.2998
343.707 63.546
343.658 56.2675
343.61 62.9047
343.561 54.4211
343.512 51.3829
343.463 62.8505
343.414 59.8116
343.366 59.1904
343.317 58.5696
343.268 56.7418
343.219 56.1221
343.17 62.1388
343.122 60.3116
343.073 62.706
343.024 59.6741
342.975 66.2855
342.926 56.6277
342.877 53.6001
342.829 55.3909
342.78 54.7731
342.731 54.7573
342.682 59.554
342.633 63.7465
342.585 55.9124
342.536 54.0932
342.487 65.494
342.438 62.4717
342.389 62.4537
342.341 60.6346
342.292 52.2148
342.243 55.1997
342.194 52.1846
342.145 55.1678
342.096 62.9451
342.048 56.3346
341.999 58.7149
341.95 54.207049999999995
341.901 49.6992
341.852 52.976299999999995
341.804 56.2534
341.755 55.0406
341.706 54.72575
341.657 54.4109
341.608 61.5681
341.56 53.1843
341.511 57.3507
341.462 56.7369
341.413 51.347
341.364 48.3477
341.315 65.6385
341.267 48.9163
341.218 52.4804
341.169 54.2538
341.12 62.5824
341.071 48.8598
341.023 53.609700000000004
340.974 58.3596
340.925 52.9847
340.876 50.5887
340.827 52.359
340.779 55.3179
340.73 54.1126
340.681 52.908
340.632 48.7326
340.583 52.8774
340.534 61.1774
340.486 62.9411
340.437 54.0186
340.388 58.7505
340.339 58.7335
340.29 53.3786
340.242 58.1065
340.193 54.53415
340.144 50.9618
340.095 47.3926
340.046 53.8934
339.997 51.5095
339.949 51.4946
339.9 55.6217
339.851 55.6055
339.802 52.0411
339.753 59.7117
339.705 53.784
339.656 50.2232
339.607 48.4366
339.558 54.9182
339.509 50.7698
339.46 56.6568
339.412 50.1503
339.363 47.1866
339.314 51.8901
339.265 50.6961
339.216 57.1638
339.167 54.7906
339.119 57.7195
339.07 57.7027
339.021 49.4451
338.972 54.7268
338.923 55.8875
338.875 52.3425
338.826 52.9152
338.777 52.8998
338.728 65.2241
338.679 49.3444
338.63 55.2027
338.582 53.4253
338.533 48.7144
338.484 52.8074
338.435 49.8591
338.386 63.9184
338.338 54.52
338.289 47.4713
338.24 47.4574
338.191 53.3008
338.142 50.3575
338.093 58.5382
338.045 54.4246
337.996 56.1638
337.947 51.4685
337.898 60.224
337.849 42.6705
337.8 50.8391
337.752 54.3294
337.703 51.9774
337.654 53.7138
337.605 52.5307
337.556 53.0989
337.507 54.25
337.459 54.2342
337.41 51.8864
337.361 49.5399
337.312 49.5254
337.263 59.9956
337.215 41.3441
337.166 45.4058
337.117 49.4675
337.068 48.2894
337.019 51.1834
336.97 50.005849999999995
336.922 48.8283
336.873 47.0707
336.824 53.4473
336.775 55.174
336.726 52.8354
336.677 51.6591
336.629 52.8045
336.58 52.2089
336.531 55.0932
336.482 49.2795
336.433 48.1059
336.384 46.9329
336.336 57.9249
336.287 58.487
336.238 49.2073
336.189 50.3503
336.14 52.0713
336.091 48.58665
336.043 45.102
335.994 52.6035
335.945 47.3871
335.896 53.1504
335.847 46.4949
335.798 39.8394
335.75 40.404066666666665
335.701 40.96873333333333
335.652 41.5334
335.603 42.09806666666667
335.554 42.662733333333335
335.505 43.2274
335.457 50.129
335.408 46.27636666666667
335.359 42.42373333333333
335.31 38.5711
335.261 46.0415
335.212 54.0828
335.164 50.0406
335.115 52.326
335.066 47.137
335.017 52.8698
334.968 46.5347
334.919 55.136
334.871 49.9523
334.822 50.5116
334.773 52.2182
334.724 53.9238
334.675 47.314750000000004
334.626 40.7057
334.578 43.36683333333333
334.529 46.02796666666667
334.48 48.6891
334.431 48.1021
334.382 53.2402
334.333 46.9291
334.285 49.776
334.236 48.0454
334.187 49.1748
334.138 49.7319
334.089 50.2887
334.04 45.7035
333.992 47.97385
333.943 50.2442
333.894 45.0923
333.845 46.7908
333.796 50.1997
333.747 44.482
333.699 53.0206
333.65 52.435
333.601 51.8497
333.552 46.7079
333.503 55.2357
333.454 46.6803
333.406 51.2193
333.357 50.0663
333.308 43.7951
333.259 49.4681
333.21 54.5694
333.161 55.1215
333.113 52.8328
333.064 47.7058
333.015 51.0982
332.966 47.6776
332.917 46.5286
332.868 52.7546
332.82 47.0698
332.771 41.385
332.722 44.2065
332.673 47.5929
332.624 46.446
332.575 44.1672
332.526 45.8524
332.478 52.0638
332.429 47.5224
332.38 44.1149
332.331 49.1905
332.282 49.7411
332.233 45.2071
332.185 40.6731
332.136 43.2016
332.087 45.7301
332.038 44.5877
331.989 53.038
331.94 50.766
331.892 46.2397
331.843 43.4073
331.794 46.7758
331.745 50.1423
331.696 46.1848
331.647 45.045
331.598 46.1574
331.55 43.8927
331.501 48.3802
331.452 48.9282
331.403 40.20175
331.354 31.4753
331.305 31.724353846153846
331.257 31.973407692307692
331.208 32.22246153846154
331.159 32.47151538461539
331.11 32.72056923076923
331.061 32.96962307692308
331.012 33.21867692307693
330.964 33.46773076923077
330.915 33.71678461538462
330.866 33.96583846153846
330.817 34.21489230769231
330.768 34.46394615384615
330.719 34.713
330.67 44.7776
330.622 43.6452
330.573 39.7164
330.524 43.6191
330.475 42.488
330.426 40.7987
330.377 53.0784
330.329 46.9184
330.28 47.4628
330.231 46.8905
330.182 40.1798
330.133 39.6099
330.084 48.5216
330.035 40.7014
329.987 48.4927
329.938 47.921
329.889 45.1214
329.84 57.3594
329.791 50.6616
329.742 52.8727
329.694 39.5036
329.645 45.6102
329.596 47.2648
329.547 41.6917
329.498 45.5693
329.449 43.889
329.4 39.4328
329.352 38.310900000000004
329.303 37.189
329.254 40.5072
329.205 43.54515
329.156 46.5831
329.107 47.1236
329.058 49.8806
329.01 42.665
328.961 35.4494
328.912 40.4224
328.863 40.9638
328.814 42.6117
328.765 45.9184
328.717 41.20495
328.668 36.4915
328.619 37.999225
328.57 39.50695
328.521 41.014675
328.472 42.5224
328.423 41.4055
328.375 42.4969
328.326 40.2772
328.277 41.64365
328.228 43.0101
328.179 48.5096
328.13 51.2505
328.081 44.90145
328.033 38.5524
327.984 37.4397
327.935 39.6301
327.886 39.6182
327.837 36.8559
327.788 46.7434
327.739 42.8822
327.691 39.021
327.642 42.3059
327.593 48.8843
327.544 42.8295
327.495 41.1698
327.446 44.45
327.398 41.1451
327.349 42.778
327.3 44.9582
327.251 39.466899999999995
327.202 33.9756
327.153 28.4843
327.104 28.548348076923077
327.056 28.612396153846156
327.007 28.67644423076923
326.958 28.74049230769231
326.909 28.804540384615386
326.86 28.86858846153846
326.811 28.93263653846154
326.762 28.996684615384616
326.714 29.060732692307692
326.665 29.12478076923077
326.616 29.188828846153847
326.567 29.252876923076926
326.518 29.316925
326.469 29.380973076923077
326.42 29.445021153846156
326.372 29.50906923076923
326.323 29.573117307692307
326.274 29.637165384615386
326.225 29.70121346153846
326.176 29.76526153846154
326.127 29.829309615384616
326.078 29.893357692307692
326.03 29.95740576923077
325.981 30.021453846153847
325.932 30.085501923076926
325.883 30.14955
325.834 30.213598076923077
325.785 30.277646153846156
325.736 30.34169423076923
325.688 30.405742307692307
325.639 30.469790384615386
325.59 30.533838461538462
325.541 30.59788653846154
325.492 30.661934615384617
325.443 30.725982692307692
325.394 30.79003076923077
325.346 30.854078846153847
325.297 30.918126923076926
325.248 30.982175
325.199 31.046223076923077
325.15 31.110271153846156
325.101 31.174319230769232
325.052 31.238367307692307
325.004 31.302415384615387
324.955 31.366463461538462
324.906 31.43051153846154
324.857 31.494559615384617
324.808 31.558607692307692
324.759 31.62265576923077
324.71 31.686703846153847
324.661 31.750751923076926
324.613 31.8148
324.564 45.2819
324.515 38.2645
324.466 31.2471
324.417 33.2112
324.368 35.1753
324.319 37.1394
324.271 43.0471
324.222 49.4892
324.173 38.7189
324.124 40.3199
324.075 36.5456
324.026 37.6091
323.977 41.8945
323.929 42.4187
323.88 41.3323
323.831 39.1732
323.782 49.354
323.733 37.0042
323.684 43.9627
323.635 34.3019
323.587 40.1853
323.538 36.9592
323.489 43.9092
323.44 33.7248
323.391 35.4973
323.342 37.2698
323.293 39.0423
323.244 34.7531
323.196 41.691
323.147 43.2813
323.098 41.9339
323.049 40.5865
323.0 39.2391
322.951 37.8917
322.902 43.7489
322.854 38.9368
322.805 34.1247
322.756 34.913124999999994
322.707 35.70155
322.658 36.489975
322.609 37.2784
322.56 39.3965
322.512 37.7878
322.463 36.1801
322.414 39.3605
322.365 39.3485
322.316 32.9576
322.267 43.0443
322.218 36.1249
322.169 37.1761
322.121 29.7318
322.072 31.0492
322.023 32.3666
321.974 33.4176
321.925 38.1798
321.876 38.1681
321.827 36.5666
321.779 35.4959
321.73 40.7813
321.681 39.1804
321.632 34.934
321.583 35.4524
321.534 42.8473
321.485 43.8918
321.436 38.0632
321.388 39.1085
321.339 41.2098
321.29 39.6127
321.241 45.4087
321.192 43.2834
321.143 39.049949999999995
321.094 34.8165
321.046 32.6964
320.997 34.7951
320.948 33.46725
320.899 32.1394
320.85 34.2364
320.801 41.0711
320.752 35.2682
320.703 40.5197
320.655 38.403
320.606 37.3394
320.557 36.8021
320.508 35.2141
320.459 42.0338
320.41 36.243
320.361 42.008
320.312 39.8953
320.264 33.5857
320.215 41.9692
320.166 36.7118
320.117 37.7491
320.068 42.4547
320.019 45.0615
319.97 39.2857
319.921 37.7027
319.873 34.0267
319.824 34.0162
319.775 35.5752
319.726 36.6103
319.677 36.0762
319.628 35.0197
319.579 38.1441
319.531 41.2665
319.482 31.8542
319.433 36.5427
319.384 29.2252
319.335 34.9551
319.286 40.1598
319.237 35.9763
319.188 37.5289
319.14 39.6016
319.091 35.943
319.042 39.5772
318.993 42.16715
318.944 44.7571
318.895 47.3447
318.846 44.2094
318.797 55.6347
318.749 54.0581
318.7 48.84675
318.651 43.6354
318.602 47.2571
318.553 45.1659
318.504 51.8988
318.455 45.3994
318.406 38.9
318.358 41.22055
318.309 43.5411
318.26 42.232600000000005
318.211 40.9241
318.162 42.9829
318.113 49.6997
318.064 45.544
318.015 43.461
317.967 41.378
317.918 41.8823
317.869 40.8355
317.82 39.7894
317.771 40.2937
317.722 37.6991
317.673 41.8175
317.624 41.2884
317.576 44.62825
317.527 47.9681
317.478 43.8282
317.429 40.7218
317.38 45.347
317.331 38.636
317.282 41.714
317.233 38.6121
317.185 41.1734
317.136 45.7912
317.087 45.2627
317.038 41.3934
316.989 37.5241
316.94 44.7067
316.891 45.7202
316.842 41.3422
316.794 36.9642
316.745 44.138
316.696 45.6635
316.647 46.1622
316.598 34.3545
316.549 35.369
316.5 32.7959
316.451 37.3962
316.402 31.2391
316.354 34.8131
316.305 29.6843
316.256 35.3031
316.207 39.8954
316.158 36.56045
316.109 33.2255
316.06 36.2812
316.011 34.2265
315.963 36.7693
315.914 39.821
315.865 35.72695
315.816 31.6329
315.767 35.1934
315.718 31.1033
315.669 32.62235
315.62 34.1414
315.572 29.0366
315.523 28.2639
315.474 27.4912
315.425 27.991233333333334
315.376 28.491266666666665
315.327 28.9913
315.278 30.5077
315.229 34.5646
315.181 41.1597
315.132 40.6389
315.083 36.8187
315.034 32.9985
314.985 36.5407
314.936 38.0514
314.887 33.98325
314.838 29.9151
314.789 30.41245
314.741 30.9098
314.692 28.36815
314.643 25.8265
314.594 26.54027142857143
314.545 27.254042857142856
314.496 27.967814285714287
314.447 28.681585714285713
314.398 29.395357142857144
314.35 30.10912857142857
314.301 30.8229
314.252 34.3492
314.203 30.0475
314.154 25.7458
314.105 26.241616666666665
314.056 26.737433333333332
314.007 27.233249999999998
313.958 27.729066666666668
313.91 28.224883333333334
313.861 28.7207
313.812 32.7414
313.763 34.2418
313.714 35.7413
313.665 31.2009
313.616 35.2158
313.567 35.2048
313.518 33.1827
313.47 33.6749
313.421 35.1716
313.372 34.156
313.323 33.141
313.274 36.1425
313.225 28.6038
313.176 28.5949
313.127 28.5859
313.079 32.5877
313.03 35.0834
312.981 29.561
312.932 31.5552
312.883 33.0475
312.834 34.0382
312.785 32.5263
312.736 32.5161
312.687 32.0058
312.639 34.4954
312.59 31.9857
312.541 30.2275
312.492 28.4693
312.443 33.4534
312.394 31.6964
312.345 29.9394
312.296 32.6727
312.247 35.406
312.199 33.8993
312.15 34.8853
312.101 37.8636
312.052 37.3536
312.003 32.3629
311.954 38.3255
311.905 32.3425
311.856 34.322
311.807 27.8468
311.759 30.3235
311.71 27.3323
311.661 32.2916
311.612 32.2814
311.563 32.2712
311.514 35.7353
311.465 28.7777
311.416 31.7447
311.368 36.1973
311.319 31.47825
311.27 26.7592
311.221 28.236449999999998
311.172 29.7137
311.123 33.6648
311.074 34.644
311.025 28.696
310.976 30.1707
310.928 39.5557
310.879 34.1077
310.83 28.6597
310.781 33.0965
310.732 34.5674
310.683 37.0248
310.634 31.0929
310.585 25.161
310.536 29.0986
310.488 33.0337
310.439 34.5019
310.39 32.0273
310.341 32.5097
310.292 32.9919
310.243 32.4891
310.194 35.4315
310.145 31.9766
310.096 31.9665
310.048 34.4145
309.999 36.3695
309.95 35.8667
309.901 33.8906
309.852 34.3709
309.803 36.3234
309.754 34.3491
309.705 31.8855
309.656 30.4042
309.607 29.4144
309.559 28.4246
309.51 32.8248
309.461 32.8144
309.412 31.3352
309.363 28.87875
309.314 26.4223
309.265 30.327
309.216 33.2513
309.167 28.3524
309.119 32.2528
309.07 32.7311
309.021 29.3021
308.972 28.8046
308.923 28.7954
308.874 29.7621
308.825 37.0688
308.776 28.2804
308.727 27.2965
308.679 32.6479
308.63 27.7662
308.581 28.000799999999998
308.532 28.2354
308.483 29.6864
308.434 32.1094
308.385 36.4764
308.336 30.6304
308.287 33.0508
308.239 28.6687
308.19 24.2866
308.141 25.006525
308.092 25.72645
308.043 26.446375
307.994 27.1663
307.945 26.18805
307.896 25.2098
307.847 27.38195
307.798 29.5541
307.75 25.1856
307.701 26.14565
307.652 27.1057
307.603 30.968
307.554 30.9581
307.505 31.9154
307.456 36.2559
307.407 32.3782
307.358 36.2327
307.31 33.3234
307.261 31.8644
307.212 29.683
307.163 27.5016
307.114 29.4222
307.065 33.7523
307.016 29.4033
306.967 28.9121
306.918 31.3114
306.869 29.8567
306.821 33.6984
306.772 30.56045
306.723 27.4225
306.674 29.8177
306.625 32.2129
306.576 28.3575
306.527 27.8679
306.478 28.3393
306.429 29.2905
306.381 29.2812
306.332 31.9102
306.283 34.5392
306.234 32.1303
306.185 26.84825
306.136 21.5662
306.087 22.51655
306.038 23.4669
305.989 24.41725
305.94 25.3676
305.892 28.2304
305.843 29.178
305.794 29.6468
305.745 33.4614
305.696 27.2384
305.647 27.945999999999998
305.598 28.6536
305.549 33.4184
305.5 33.8849
305.451 31.0114
305.403 29.0937
305.354 29.0843
305.305 33.3647
305.256 29.0656
305.207 27.1509
305.158 25.476100000000002
305.109 23.8013
305.06 25.6965
305.011 27.5917
304.963 29.9606
304.914 31.3772
304.865 25.664
304.816 29.9317
304.767 30.872
304.718 34.1856
304.669 24.207
304.62 24.76786
304.571 25.32872
304.522 25.88958
304.474 26.45044
304.425 27.0113
304.376 30.3187
304.327 28.8882
304.278 34.0865
304.229 30.7626
304.18 30.7527
304.131 30.7428
304.082 32.1513
304.033 27.4143
303.985 29.2955
303.936 25.0348
303.887 28.3321
303.838 28.323
303.789 33.5047
303.74 30.1916
303.691 29.7103
303.642 27.3435
303.593 28.7485
303.544 32.5083
303.496 29.6728
303.447 26.8373
303.398 28.7113
303.349 29.1725
303.3 30.1035
303.251 31.0345
303.202 25.8537
303.153 27.725
303.104 25.3672
303.055 27.2375
303.007 24.4119
302.958 26.51515
302.909 28.6184
302.86 26.499299999999998
302.811 24.3802
302.762 25.542924999999997
302.713 26.70565
302.664 27.868375
302.615 29.0311
302.566 32.2983
302.518 27.6084
302.469 36.4874
302.42 28.060850000000002
302.371 19.6343
302.322 19.73491153846154
302.273 19.835523076923078
302.224 19.936134615384614
302.175 20.036746153846153
302.126 20.137357692307692
302.077 20.23796923076923
302.028 20.33858076923077
301.98 20.439192307692306
301.931 20.539803846153845
301.882 20.640415384615384
301.833 20.741026923076923
301.784 20.841638461538462
301.735 20.94225
301.686 21.042861538461537
301.637 21.143473076923076
301.588 21.244084615384615
301.539 21.344696153846154
301.491 21.445307692307694
301.442 21.54591923076923
301.393 21.64653076923077
301.344 21.747142307692307
301.295 21.847753846153847
301.246 21.948365384615386
301.197 22.04897692307692
301.148 22.14958846153846
301.099 22.2502
301.05 24.0965
301.002 28.721
300.953 25.47
300.904 25.924500000000002
300.855 26.379
300.806 28.2209
300.757 29.1367
300.708 27.7402
300.659 32.8152
300.61 30.9563
300.561 27.713
300.512 29.5509
300.464 26.3102
300.415 25.60965
300.366 24.9091
300.317 25.82295
300.268 26.7368
300.219 30.8755
300.17 30.8654
300.121 30.8553
300.072 27.853749999999998
300.023 24.8522
299.975 29.4448
